tree
version=v3
num_class=1
num_tree_per_iteration=1
label_index=0
max_feature_idx=20
objective=regression
feature_names=Column_0 Column_1 Column_2 Column_3 Column_4 Column_5 Column_6 Column_7 Column_8 Column_9 Column_10 Column_11 Column_12 Column_13 Column_14 Column_15 Column_16 Column_17 Column_18 Column_19 Column_20
feature_infos=[0:75.965415954589844] [0:10725] [0:992878.0625] [0:31.792446136474609] [0:0.34341979026794434] [0:992878.0625] [0:10725] [0:70.89337158203125] [0:9308] [0:862736.4375] [0:27.79656982421875] [0:0.3072664737701416] [0:862736.4375] [0:9308] [0:72.118179321289062] [0:26795] [0:2457412.25] [0:81.3564453125] [0:0.91533476114273071] [0:2457412.25] [0:26795]
tree_sizes=968 1004 1008 1008 1007 1006 1007 1010 1006 1005 1010 1011 1009 1007 1009 1000 1012 1009 1005 996 1003 999 998 1008 1003 1002 1007 1000 1002 1009 999 998 1004 1001 1003 999 995 1009 1002 1008 999 998 1006 1002 1007 997 1002 1004 1000 1010 1001 998 1011 1006 990 1009 1010 1006 1009 999 980 995 977 1002 977 991 980 997 983 996 981 1001 979 994 983 979 1017 997 995 1005 997 1012 1014 998 996 1002 998 1018 999 1020 997 1012 1005 1002 987 1000 1015 1013 1015 1010 1001 1020 1008 1018 1004 1006 1001 1022 1002 1008 1019 1017 1010 1005 1019 1001 1008 1004 1002 1025 1015 1019 1024 1019 992 1006 1005 1029 1018 986 1019 1028 1006 1022 1021 1003 993 1021 1025 1006 1006 1005 1027 1007 1023 998 1023 1008 999 1024 1006 1004 995 1005 1021 1039 1006 1038 1018 1003 1008 1008 1015 1024 1008 1037 1010 1037 1020 1010 1006 1028 1014 1025 1017 1007 1021 1005 1022 1024 1030 1015 1003 1020 1016 1020 996 1014 1014 1025 1017 1010 1013 1020 1019 1008 1025 1023 1008 1025 1154 1110 1154 1153 1145 1145 1164 1108 1144 1104 1112 1132 1141 1127 1123 1145 1144 1096 1105 1147 1140 1150 1115 1116 1140 1156 1128 1158 1113 1163 1122 1150 1124 1128 1158 1111 1146 1147 1120 1106 1146 1132 1123 1155 1131 1148 1141 1140 1146 1156 1147 1153 1105 1150 1153 1132 1136 1147 1126 1138 1133 1129 1133 1127 1141 1167 1132 1142 1156 1136 1150 1150 1125 1140 1163 1123 1138 1146 1153 1120 1113 1150 1172 1141 1134 1131 1161 1135 1101 1141 1105 1153 1141 1164 1120 1159 1127 1149 1139 1113 1110 1134 1158 1151 1169 1146 1148 1157 1126 1123 1111 1162 1170 1168 1141 1140 1173 1143 1128 1160 1148 1116 1139 1168 1154 1173 1134 1154 1139 1133 1161 1154 1142 1161 1158 1159 1123 1181 1161 1126 1118 1119 1166 1174 1157 1169 1134 1123 1184 1167 1136 1161 1121 1147 1139 1109 1150 1168 1165 1176 1151 1166 1165 1135 1134 1156 1159 1149 1158 1135 1133 1128 1149 1120 1146 1163 1150 1180 1140 1155 1162 1154 1168 1147 1169 1133 1135 1148 1147 1153 1109 1164 1165 1149 1171 1156 1143 1143 1168 1157 1152 1174 1160 1146 1175 1152 1135 1157 1149 1129 1149 1170 1159 1157 1183 1168 1126 1166 1152 1165 1157 1169 1141 1164 1177 1162 1159 1187 1146 1146 1181 1143 1154 1147 1170 1162 1153 1162 1140 1174 1141 1143 1136 1175 1150 1182 1158 1173 1169 1168 1179 1148 1138 1139 1179 1150 1143 1171 1148 1184 1174 1145 1168 1177 1160 1147 1175 1150 1133 1106 1174 1168 1166 1180 1138 1144 1148 1151 1159 1168 1153 1159 1170 1131 1177 1179 1160 1133 1153 1139 1145 1156 1169 1170 1173 1175 1144 1168 1171 1166 1167 1170 1168 1152 1160 1146 1164 1156 1168 1183 1176 1179 1170 1178 1124 1189 1163 1170 1181 1169 1147 1176 1182 1166 1172 1170 1167 1172 1165 1143 1154 1134 1163 1163 1166 1168 1164 1180 1178 1175 1140 1174 1180 1174 1180 1191 1166 1170 1178 1175 1156 1170 1157 1170 1191 1144 1180 1166 1178 1169 1174 1181 1164 1173 1139 1178 1159 1153 1152 1167 1159 1186 1169 1171 1176 1175 1175 1184 1177 1167 1185 1148 1157 1178 1137 1175 1162 1175 1175 1180 1174 1176 1165 1152 1137 1180 1183 1168 1141 1184 1149 1172 1170 1165 1174 1191 1175 1177 1171 1169 1178 1159 1175 1158 1137 1172 1167 1172 1151 1167 1182 1176 1173 1162 1147 1171 1171 1160 1179 1167 1178 1151 1155 1144 1171 1155 1165 1166 1170 1162 1186 1177 1150 1178 1172 1186 1158 1170 1163 1186 1138 1172 1180 1167 1167 1169 1173 1168 1175 1128 1145 1184 1169 1174 1183 1160 1178 1121 1166 1169 1176 1185 1183 1179 1179 1169 1180 1178 1170 1182 1176 1174 1187 1177 1175 1162 1156 1159 1155 1175 1166 1179 1173 1183 1151 1175 1141 1163 1153 1179 1173 1173 1181 1179 1166 1189 1153 1181 1180 1177 1169 1151 1171 1175 1159 1164 1192 1177 1168 1177 1174 1173 1174 1176 1144 1173 1171 1153 1179 1148 1161 1190 1163 1192 1168 1175 1175 1138 1167 1177 1187 1182 1170 1180 1173 1178 1186 1147 1144 1178 1184 1190 1170 1172 1173 1172 1179 1183 1173 1175 1174 1167 1180 1173 1171 1175 1167 1158 1182 1183 1176 1180 1157 1187 1165 1182 1163 1176 1166 1173 1177 1160 1168 1171 1167 1176 1175 1174 1177 1173 1190 1188 1177 1184 1180 1133 1176 1184 1183 1163 1170 1176 1178 1187 1181 1147 1187 1181 1175 1177 1159 1171 1153 1178 1170 1170 1164 1171 1186 1175 1162 1188 1192 1180 1172 1177 1169 1147 1177 1172 1190 1184 1188 1154 1171 1139 1172 1161 1176 1177 1185 1175 1188 1160 1148 1175 1170 1182 1162 1179 1185 1181 1179 1159 1154 1167 1169 1175 1172 1181 1146 1144 1181 1169 1182 1177 1182 1177 1155 1177 1154 1169 1182 1180 1167 1158 1179 1151 1159 1169 1169 1131 1142 1179 1153 1185 1175 1188 1182 1179 1184 1183 1172 1174 1171 1180 1176 1168 1170 1160 1182 1169 1177 1188 1154 1184 1179 1175 1166 1183 1177 1177 1176 1181 1169 1147 1168 1178 1131 1140 1168 1181 1183 1185 1153 1171 1173 1179 1186 1166 1163 1181 1187 1190 1171 1160 1174 1175 1170 1146 1183 1163 1157 1184 1157 1135 1163 1173 1168 1178 1169 1180 1140 1161 1164 1182 1177 1178 1190 1174 1188 1163 1176 1183 1167 1176 1177 1161 1176 1177 1156 1159 1177 1170 1148 1171 1172 1177 1146 1179 1178 1185 1173 1163 1164 1176 1165 1154 1160 1179 1186 1173 1181 1171 1177 1185 1163 1181 1190 1173 1173 1184 1168 1188 1177 1185 1152 1176 1171 1183 1185 1177 1182 1182 1179 1173 1176 1183 1179 1193 1164 1185 1150 1182 1172 1181 1141 1175 1189 1173 1171 1183 1183 1177 1193 1171 1182 1184 1144 1176 1180 1165 1163 1184 1182 1174 1193 1184 1174 1167 1181 1177 1179 1188 1159 1178 1174 1171 1182 1152 1151 1182 1178 1174 1171 1186 1190 1180 1188 1180 1153 1176 1185 1183 1154 1185 1163 1182 1174 1180 1158 1164 1174 1182 1175 1148 1178 1183 1176 1165 1185 1173 1181 1192 1174 1186 1155 1178 1178 1180 1180 1183 1184 1179 1169 1153 1185 1159 1175 1182 1159 1175 1190 1174 1176 1178 1175 1183 1174 1149 1179 1180 1179 1180 1171 1175 1178 1179 1188 1174 1176 1188 1188 1174 1172 1164 1126 1174 1168 1190 1174 1161 1181 1181 1176 1142 1180 1185 1176 1180 1172 1188 1185 1182 1160 1173 1164 1181 1179 1153 1176 1184 1187 1159 1176 1174 1177 1168 1177 1176 1180 1155 1153 1184 1182 1193 1172 1177 1196 1184 1175 1174 1181 1161 1178 1184 1159 1178 1183 1176 1150 1186 1179 1167 1169 1136 1195 1170 1176 1145 1169 1169 1146 1170 1173 1184 1183 1188 1186 1176 1182 1185 1168 1195 1191 1184 1187 1172 1174 1187 1169 1184 1180 1179 1186 1186 1162 1177 1153 1156 1174 1178 1172 1178 1163 1173 1150 1167 1183 1166 1172 1161 1167 1179 1181 1156 1172 1168 1173 1180 1187 1177 1193 1177 1184 1163 1187 1149 1180 1169 1178 1179 1166 1169 1182 1181 1177 1176 1184 1151 1187 1178 1186 1183 1161 1170 1174 1173 1176 1181 1191 1170 1175 1185 1169 1186 1165 1174 1176 1142 1195 1175 1162 1182 1183 1178 1159 1172 1164 1181 1182 1167 1179 1186 1190 1186 1153 1171 1168 1182 1176 1192 1178 1172 1181 1184 1178 1151 1176 1191 1166 1158 1170 1160 1195 1178 1178 1179 1179 1158 1171 1171 1178 1175 1186 1184 1137 1189 1134 1177 1175 1162 1179 1171 1184 1155 1186 1175 1145 1180 1173 1188 1180 1178 1175 1179 1193 1187 1149 1180 1176 1179 1188 1180 1174 1172 1184 1194 1164 1167 1158 1185 1182 1178 1179 1146 1178 1160 1167 1175 1175 1185 1181 1172 1153 1182 1184 1163 1183 1173 1178 1165 1181 1187 1178 1177 1181 1183 1173 1186 1172 1189 1186 1172 1180 1177 1176 1195 1179 1183 1157 1177 1163 1165 1188 1180 1179 1147 1171 1156 1168 1180 1191 1126 1175 1140 1179 1171 1171 1186 1172 1182 1167 1155 1170 1158 1171 1177 1177 1184 1163 1165 1172 1169 1191 1182 1169 1181 1177 1178 1178 1155 1139 1188 1175 1181 1170 1187 1177 1182 1177 1184 1186 1183 1184 1180 1166 1179 1172 1156 1185 1177 1179 1160 1173 1173 1165 1159 1169 1182 1183 1171 1169 1183 1181 1182 1179 1165 1186 1186 1154 1177 1154 1179 1188 1175 1177 1176 1182 1182 1180 1165 1190 1178 1176 1161 1167 1184 1173 1174 1170 1179 1182 1173 1175 1191 1184 1169 1177 1187 1181 1151 1173 1164 1164 1187 1167 1179 1168 1186 1179 1176 1168 1176 1178 1183 1164 1182 1193 1184 1156 1179 1179 1176 1168 1188 1179 1173 1171 1176 1160 1171 1170 1185 1187 1181 1168 1196 1178 1186 1163 1182 1180 1179 1184 1173 1176 1181 1185 1174 1176 1164 1180 1176 1179 1166 1178 1179 1174 1173 1174 1178 1169 1158 1188 1184 1176 1152 1182 1175 1177 1175 1192 1191 1170 1192 1170 1182 1181 1178 1174 1187 1183 1184 1189 1179 1184 1172 1183 1185 1148 1189 1173 1176 1164 1180 1151 1187 1183 1186 1175 1196 1180 1170 1192 1189 1172 1152 1183 1180 1182 1177 1170 1179 1184 1183 1186 1119 1166 1180 1171 1181 1189 1187 1185 1176 1176 1187 1180 1180 1179 1151 1167 1183 1178 1165 1174 1180 1172 1186 1166 1176 1164 1183 1174 1191 1187 1148 1186 1173 1185 1184 1194 1194 1164 1169 1177 1188 1182 1184 1170 1153 1153 1185 1180 1187 1181 1189 1178 1197 1176 1180 1181 1170 1181 1182 1185 1147 1187 1179 1180 1177 1193 1149 1178 1178 1186 1182 1174 1177 1167 1180 1186 1131 1182 1180 1176 1179 1150 1158 1186 1177 1185 1171 1170 1178 1167 1180 1189 1175 1178 1172 1175 1173 1169 1180 1144 1188 1139 1191 1191 1181 1182 1153 1163 1175 1175 1182 1178 1175 1188 1188 1177 1184 1189 1177 1178 1181 1180 1189 1163 1167 1180 1187 1172 1182 1165 1181 1146 1173 1167 1181 1186 1183 1179 1187 1189 1172 1183 1180 1176 1182 1185 1175 1180 1185 1134 1187 1173 1182 1171 1179 1185 1183 1190 1178 1155 1191 1188 1184 1179 1176 1170 1169 1193 1190 1143 1165 1181 1189 1162 1178 1180 1168 1176 1176 1184 1176 1189 1186 1164 1177 1178 1124 1157 1180 1187 1178 1177 1178 1172 1179 1188 1156 1183 1185 1176 1184 1177 1150 1178 1164 1190 1175 1186 1176 1158 1181 1182 1179 1183 1176 1189 1171 1188 1191 1172 1187 1174 1179 1186 1181 1182 1183 1175 1178 1178 1189 1180 1183 1157 1165 1173 1144 1190 1176 1181 1188 1172 1181 1178 1183 1172 1198 1152 1176 1181 1172 1172 1177 1172 1173 1137 1176 1177 1180 1188 1180 1175 1179 1176 1163 1183 1171 1183 1192 1188 1168 1172 1181 1173 1178 1180 1170 1194 1188 1183 1183 1180 1181 1161 1177 1170 1175 1168 1177 1178 1188 1185 1184 1158 1166 1183 1184 1182 1167 1178 1182 1144 1178 1169 1149 1175 1197 1187 1171 1175 1184 1156 1152 1172 1183 1177 1177 1171 1177 1182 1190 1183 1180 1169 1172 1185 1165 1159 1172 1177 1187 1179 1183 1171 1178 1178 1188 1169 1187 1178 1175 1182 1178 1158 1187 1183 1175 1180 1179 1186 1179 1172 1196 1184 1179 1156 1180 1181 1188 1172 1177 1178 1176 1160 1191 1187 1154 1177 1175 1178 1167 1182 1183 1177 1184 1180 1154 1176 1185 1187 1182 1186 1170 1182 1166 1182 1182 1188 1185 1182 1193 1169 1174 1150 1160 1179 1175 1189 1173 1183 1178 1173 1168 1162 1183 1181 1175 1179 1184 1187 1186 1176 1170 1144 1187 1176 1179 1191 1188 1174 1181 1183 1177 1197 1182 1180 1191 1178 1181 1189 1167 1189 1178 1172 1161 1195 1176 1169 1180 1182 1177 1184 1184 1180 1168 1173 1156 1179 1169 1186 1172 1183 1193 1192 1184 1177 1182 1175 1185 1149 1176 1183 1189 1178 1171 1170 1178 1182 1186 1175 1156 1180 1176 1165 1170 1170 1172 1172 1192 1192 1188 1180 1186 1183 1166 1180 1179 1174 1187 1169 1190 1168 1183 1185 1181 1186 1177 1178 1171 1185 1191 1189 1184 1124 1185 1177 1174 1186 1184 1186 1191 1168 1163 1178 1180 1172 1171 1176 1181 1179 1151 1188 1179 1174 1182 1188 1166 1160 1176 1187 1175 1181 1183 1180 1177 1168 1181 1180 1159 1176 1179 1178 1181 1173 1179 1175 1167 1167 1183 1176 1181 1188 1187 1178 1158 1186 1181 1192 1190 1182 1177 1177 1176 1180 1174 1182 1173 1185 1176 1175 1164 1175 1176 1176 1174 1183 1167 1177 1181 1180 1145 1185 1182 1176 1189 1184 1196 1186 1188 1184 1172 1184 1166 1175 1180 1166 1178 1175 1186 1151 1177 1189 1175 1177 1173 1160 1181 1182 1188 1179 1169 1183 1183 1154 1188 1157 1189 1150 1168 1188 1182 1162 1172 1170 1185 1179 1173 1197 1179 1172 1181 1185 1176 1183 1184 1184 1187 1185 1180 1180 1192 1160 1182 1182 1154 1181 1180 1190 1178 1186 1188 1183 1182 1184 1140 1176 1179 1148 1153 1182 1189 1180 1194 1165 1184 1183 1185 1179 1191 1180 1192 1169 1191 1185 1199 1180 1183 1191 1172 1149 1174 1189 1170 1179 1181 1182 1188 1188 1185 1177 1174 1173 1201 1136 1165 1152 1195 1167 1183 1185 1178 1182 1172 1180 1178 1157 1191 1183 1169 1181 1186 1187 1189 1189 1172 1194 1180 1188 1175 1185 1169 1147 1177 1172 1183 1172 1165 1169 1174 1172 1172 1181 1183 1137 1192 1164 1191 1183 1196 1176 1185 1184 1168 1176 1180 1186 1177 1182 1184 1178 1176 1180 1182 1179 1139 1186 1184 1185 1190 1173 1176 1180 1179 1182 1173 1191 1172 1166 1191 1184 1176 1188 1177 1185 1188 1186 1186 1177 1190 1175 1194 1180 1169 1178 1185 1174 1170 1174 1185 1185 1185 1154 1184 1168 1177 1184 1181 1180 1182 1173 1179 1169 1185 1179 1177 1171 1186 1179 1187 1181 1188 1187 1181 1188 1151 1180 1181 1180 1153 1188 1184 1178 1177 1176 1192 1194 1186 1173 1179 1187 1171 1183 1167 1179 1187 1184

Tree=0
num_leaves=10
num_cat=0
split_feature=0 7 0 0 0 0 17 0 14
split_gain=227629 54465.3 22900.2 11179.6 5262.88 4882.67 4282.57 3122.3 2400
threshold=18.323736190795902 5.5426411628723153 32.115238189697273 5.4640355110168466 13.469587802886965 23.37213230133057 41.963304519653327 1.0000000180025095e-35 11.547051906585695
decision_type=2 2 2 2 2 2 2 2 2
left_child=1 3 5 7 -3 -2 -4 -1 -7
right_child=2 4 6 -5 -6 8 -8 -9 -10
leaf_value=7.6289554317870207 7.7489876680916909 7.6612806604888108 7.8897288575160633 7.629428604400224 7.6979750257213047 7.732718728754195 8.0245937221231785 7.6044087764902271 7.8264022351963893
leaf_weight=141 66 329 37 757 139 7.9999999999999991 6.9999999999999991 1595 47
leaf_count=141 66 329 37 757 139 8 7 1595 47
internal_value=7.63276 7.62269 7.8135 7.61339 7.67218 7.77798 7.91118 7.6064 7.81278
internal_weight=0 2961 165 2493 468 121 44 1736 55
internal_count=3126 2961 165 2493 468 121 44 1736 55
is_linear=0
shrinkage=1


Tree=1
num_leaves=10
num_cat=0
split_feature=0 7 0 0 0 0 17 0 14
split_gain=225359 53922 22671.7 11068 5210.38 4833.97 4239.85 3091.16 2376.06
threshold=18.323736190795902 5.5426411628723153 32.115238189697273 5.4640355110168466 13.469587802886965 23.37213230133057 41.963304519653327 1.0000000180025095e-35 11.547051906585695
decision_type=2 2 2 2 2 2 2 2 2
left_child=1 3 5 7 -3 -2 -4 -1 -7
right_child=2 4 6 -5 -6 8 -8 -9 -10
leaf_value=-0.003783074942886407 0.11564900037014124 0.028380526472279368 0.25568648931142446 -0.0033122682144257638 0.064891419312079174 0.09946140483021737 0.38987702233450755 -0.028206996701634415 0.19267650441920506
leaf_weight=141 66 329 37 757 139 7.9999999999999991 6.9999999999999991 1595 47
leaf_count=141 66 329 37 757 139 8 7 1595 47
internal_value=0 -0.0100216 0.179842 -0.0192663 0.0392246 0.144499 0.277035 -0.0262233 0.179118
internal_weight=0 2961 165 2493 468 121 44 1736 55
internal_count=3126 2961 165 2493 468 121 44 1736 55
is_linear=0
shrinkage=0.005


Tree=2
num_leaves=10
num_cat=0
split_feature=0 7 0 0 0 0 17 0 14
split_gain=223111 53384.2 22445.6 10957.6 5158.41 4785.75 4197.56 3060.32 2352.36
threshold=18.323736190795902 5.5426411628723153 32.115238189697273 5.4640355110168466 13.469587802886965 23.37213230133057 41.963304519653327 1.0000000180025095e-35 11.547051906585695
decision_type=2 2 2 2 2 2 2 2 2
left_child=1 3 5 7 -3 -2 -4 -1 -7
right_child=2 4 6 -5 -6 8 -8 -9 -10
leaf_value=-0.0037641590083321783 0.11507075622226254 0.028238624592048418 0.25440805383630699 -0.0032957071211567957 0.064566962449885107 0.098964099809527403 0.38792763573782785 -0.028065962364213964 0.19171312108952951
leaf_weight=141 66 329 37 757 139 7.9999999999999991 6.9999999999999991 1595 47
leaf_count=141 66 329 37 757 139 8 7 1595 47
internal_value=0 -0.00997146 0.178942 -0.01917 0.0390285 0.143776 0.27565 -0.0260921 0.178222
internal_weight=0 2961 165 2493 468 121 44 1736 55
internal_count=3126 2961 165 2493 468 121 44 1736 55
is_linear=0
shrinkage=0.005


Tree=3
num_leaves=10
num_cat=0
split_feature=0 7 0 0 0 0 17 0 14
split_gain=220885 52851.7 22221.7 10848.3 5106.96 4738.01 4155.69 3029.79 2328.9
threshold=18.323736190795902 5.5426411628723153 32.115238189697273 5.4640355110168466 13.469587802886965 23.37213230133057 41.963304519653327 1.0000000180025095e-35 11.547051906585695
decision_type=2 2 2 2 2 2 2 2 2
left_child=1 3 5 7 -3 -2 -4 -1 -7
right_child=2 4 6 -5 -6 8 -8 -9 -10
leaf_value=-0.0037453382456979008 0.11449540375760109 0.028097430724865761 0.25313602060885043 -0.0032792290860154671 0.064244128553558599 0.098469278216362005 0.38598800659179688 -0.02792563179406253 0.19075454803223305
leaf_weight=141 66 329 37 757 139 7.9999999999999991 6.9999999999999991 1595 47
leaf_count=141 66 329 37 757 139 8 7 1595 47
internal_value=0 -0.0099216 0.178048 -0.0190741 0.0388333 0.143057 0.274272 -0.0259617 0.177331
internal_weight=0 2961 165 2493 468 121 44 1736 55
internal_count=3126 2961 165 2493 468 121 44 1736 55
is_linear=0
shrinkage=0.005


Tree=4
num_leaves=10
num_cat=0
split_feature=0 7 0 0 0 0 17 0 14
split_gain=218682 52324.5 22000 10740.1 5056.01 4690.75 4114.24 2999.57 2305.66
threshold=18.323736190795902 5.5426411628723153 32.115238189697273 5.4640355110168466 13.469587802886965 23.37213230133057 41.963304519653327 1.0000000180025095e-35 11.547051906585695
decision_type=2 2 2 2 2 2 2 2 2
left_child=1 3 5 7 -3 -2 -4 -1 -7
right_child=2 4 6 -5 -6 8 -8 -9 -10
leaf_value=-0.0037266120462552876 0.11392292533860061 0.027956943756541223 0.25187034220308868 -0.0032628319600456774 0.063922906238719712 0.097976932525634775 0.38405807495117189 -0.027786004278259963 0.18980077865275932
leaf_weight=141 66 329 37 757 139 7.9999999999999991 6.9999999999999991 1595 47
leaf_count=141 66 329 37 757 139 8 7 1595 47
internal_value=0 -0.00987199 0.177157 -0.0189788 0.0386391 0.142342 0.2729 -0.0258319 0.176445
internal_weight=0 2961 165 2493 468 121 44 1736 55
internal_count=3126 2961 165 2493 468 121 44 1736 55
is_linear=0
shrinkage=0.005


Tree=5
num_leaves=10
num_cat=0
split_feature=0 7 0 0 0 0 17 0 14
split_gain=216501 51802.5 21780.6 10633 5005.58 4643.96 4073.2 2969.65 2282.67
threshold=18.323736190795902 5.5426411628723153 32.115238189697273 5.4640355110168466 13.469587802886965 23.37213230133057 41.963304519653327 1.0000000180025095e-35 11.547051906585695
decision_type=2 2 2 2 2 2 2 2 2
left_child=1 3 5 7 -3 -2 -4 -1 -7
right_child=2 4 6 -5 -6 8 -8 -9 -10
leaf_value=-0.0037079796596621792 0.1133533094326655 0.027817158561800028 0.25061098072979904 -0.0032465185390359659 0.063603291800982661 0.097487048655748365 0.38213778632027762 -0.027647073221430882 0.18885177693468461
leaf_weight=141 66 329 37 757 139 7.9999999999999991 6.9999999999999991 1595 47
leaf_count=141 66 329 37 757 139 8 7 1595 47
internal_value=0 -0.00982263 0.176272 -0.0188839 0.0384459 0.14163 0.271536 -0.0257027 0.175562
internal_weight=0 2961 165 2493 468 121 44 1736 55
internal_count=3126 2961 165 2493 468 121 44 1736 55
is_linear=0
shrinkage=0.005


Tree=6
num_leaves=10
num_cat=0
split_feature=0 7 0 0 0 0 17 0 14
split_gain=214341 51285.8 21563.3 10526.9 4955.65 4597.64 4032.57 2940.03 2259.9
threshold=18.323736190795902 5.5426411628723153 32.115238189697273 5.4640355110168466 13.469587802886965 23.37213230133057 41.963304519653327 1.0000000180025095e-35 11.547051906585695
decision_type=2 2 2 2 2 2 2 2 2
left_child=1 3 5 7 -3 -2 -4 -1 -7
right_child=2 4 6 -5 -6 8 -8 -9 -10
leaf_value=-0.0036894386108462691 0.1127865419062701 0.027678073852982564 0.2493579287142367 -0.0032302855110703877 0.063285276631710768 0.096999611929059038 0.38022708892822266 -0.027508837979041672 0.18790752228270186
leaf_weight=141 66 329 37 757 139 7.9999999999999991 6.9999999999999991 1595 47
leaf_count=141 66 329 37 757 139 8 7 1595 47
internal_value=0 -0.00977352 0.17539 -0.0187895 0.0382537 0.140922 0.270178 -0.0255742 0.174685
internal_weight=0 2961 165 2493 468 121 44 1736 55
internal_count=3126 2961 165 2493 468 121 44 1736 55
is_linear=0
shrinkage=0.005


Tree=7
num_leaves=10
num_cat=0
split_feature=0 7 0 0 0 0 17 0 14
split_gain=212203 50774.2 21348.2 10421.9 4906.22 4551.77 3992.34 2910.7 2237.35
threshold=18.323736190795902 5.5426411628723153 32.115238189697273 5.4640355110168466 13.469587802886965 23.37213230133057 41.963304519653327 1.0000000180025095e-35 11.547051906585695
decision_type=2 2 2 2 2 2 2 2 2
left_child=1 3 5 7 -3 -2 -4 -1 -7
right_child=2 4 6 -5 -6 8 -8 -9 -10
leaf_value=-0.0036709917563918638 0.11222261327685733 0.027539682689046427 0.24811113331768966 -0.0032141342377253225 0.062968849895669393 0.096514613144099717 0.37832595825195314 -0.027371294263761992 0.18696798111530061
leaf_weight=141 66 329 37 757 139 7.9999999999999991 6.9999999999999991 1595 47
leaf_count=141 66 329 37 757 139 8 7 1595 47
internal_value=0 -0.00972465 0.174513 -0.0186955 0.0380624 0.140217 0.268827 -0.0254463 0.173811
internal_weight=0 2961 165 2493 468 121 44 1736 55
internal_count=3126 2961 165 2493 468 121 44 1736 55
is_linear=0
shrinkage=0.005


Tree=8
num_leaves=10
num_cat=0
split_feature=0 7 0 0 0 0 17 0 14
split_gain=210086 50267.8 21135.3 10318 4857.28 4506.37 3952.52 2881.67 2215.04
threshold=18.323736190795902 5.5426411628723153 32.115238189697273 5.4640355110168466 13.469587802886965 23.37213230133057 41.963304519653327 1.0000000180025095e-35 11.547051906585695
decision_type=2 2 2 2 2 2 2 2 2
left_child=1 3 5 7 -3 -2 -4 -1 -7
right_child=2 4 6 -5 -6 8 -8 -9 -10
leaf_value=-0.0036526362016691383 0.11166149764349967 0.027401985133627266 0.24687059325140875 -0.0031980632143181254 0.062654004632997862 0.096032042354345329 0.376434326171875 -0.027234437409986895 0.18603313537354166
leaf_weight=141 66 329 37 757 139 7.9999999999999991 6.9999999999999991 1595 47
leaf_count=141 66 329 37 757 139 8 7 1595 47
internal_value=0 -0.00967603 0.173641 -0.018602 0.0378721 0.139516 0.267483 -0.0253191 0.172942
internal_weight=0 2961 165 2493 468 121 44 1736 55
internal_count=3126 2961 165 2493 468 121 44 1736 55
is_linear=0
shrinkage=0.005


Tree=9
num_leaves=10
num_cat=0
split_feature=0 7 0 0 0 0 17 0 14
split_gain=207991 49766.3 20924.5 10215 4808.83 4461.42 3913.09 2852.92 2192.94
threshold=18.323736190795902 5.5426411628723153 32.115238189697273 5.4640355110168466 13.469587802886965 23.37213230133057 41.963304519653327 1.0000000180025095e-35 11.547051906585695
decision_type=2 2 2 2 2 2 2 2 2
left_child=1 3 5 7 -3 -2 -4 -1 -7
right_child=2 4 6 -5 -6 8 -8 -9 -10
leaf_value=-0.0036343732920098813 0.111103190797748 0.02726497433354971 0.24563623376794763 -0.0031820737020342637 0.062340734867955286 0.095551879331469539 0.37455215454101565 -0.027098266627721281 0.18510297521631766
leaf_weight=141 66 329 37 757 139 7.9999999999999991 6.9999999999999991 1595 47
leaf_count=141 66 329 37 757 139 8 7 1595 47
internal_value=0 -0.00962765 0.172773 -0.018509 0.0376828 0.138819 0.266146 -0.0251925 0.172077
internal_weight=0 2961 165 2493 468 121 44 1736 55
internal_count=3126 2961 165 2493 468 121 44 1736 55
is_linear=0
shrinkage=0.005


Tree=10
num_leaves=10
num_cat=0
split_feature=0 7 0 0 0 0 17 0 14
split_gain=205916 49269.9 20715.7 10120.9 4760.86 4416.92 3874.06 3172.8 2171.07
threshold=18.323736190795902 5.5426411628723153 32.115238189697273 4.8060579299926767 13.469587802886965 23.37213230133057 41.963304519653327 1.0000000180025095e-35 11.547051906585695
decision_type=2 2 2 2 2 2 2 2 2
left_child=1 3 5 7 -3 -2 -4 -1 -7
right_child=2 4 6 -5 -6 8 -8 -9 -10
leaf_value=-0.0036162029005956985 0.11054767545425531 0.027128649864764744 0.24440805383630701 -0.0054341440182676184 0.062029032079007125 0.095074120145291097 0.3726793943132673 -0.028488068092838194 0.18417745711955619
leaf_weight=141 66 329 37 937 139 7.9999999999999991 6.9999999999999991 1415 47
leaf_count=141 66 329 37 937 139 8 7 1415 47
internal_value=0 -0.00957951 0.171909 -0.0184165 0.0374944 0.138125 0.264815 -0.0262343 0.171217
internal_weight=0 2961 165 2493 468 121 44 1556 55
internal_count=3126 2961 165 2493 468 121 44 1556 55
is_linear=0
shrinkage=0.005


Tree=11
num_leaves=10
num_cat=0
split_feature=0 7 0 0 0 0 17 0 14
split_gain=203862 48778.5 20509.1 10027.2 4713.37 4372.86 3835.42 2797.59 2149.41
threshold=18.323736190795902 5.5426411628723153 32.115238189697273 5.4640355110168466 13.469587802886965 23.37213230133057 41.963304519653327 1.0000000180025095e-35 11.547051906585695
decision_type=2 2 2 2 2 2 2 2 2
left_child=1 3 5 7 -3 -2 -4 -1 -7
right_child=2 4 6 -5 -6 8 -8 -9 -10
leaf_value=-0.0035981214162728466 0.10999493781364325 0.026993006553534864 0.24318601556726405 -0.0031389920600496798 0.061718887408002673 0.094598751086741692 0.37081600189208985 -0.02683334331676878 0.18325656972032914
leaf_weight=141 66 329 37 757 139 7.9999999999999991 6.9999999999999991 1595 47
leaf_count=141 66 329 37 757 139 8 7 1595 47
internal_value=0 -0.00953161 0.171049 -0.0183244 0.0373069 0.137434 0.263491 -0.0249462 0.170361
internal_weight=0 2961 165 2493 468 121 44 1736 55
internal_count=3126 2961 165 2493 468 121 44 1736 55
is_linear=0
shrinkage=0.005


Tree=12
num_leaves=10
num_cat=0
split_feature=0 7 0 0 0 0 17 0 14
split_gain=201828 48313.3 20304.5 8019.24 6003.65 4329.24 3797.16 3090.5 2127.97
threshold=18.323736190795902 5.0105977058410653 32.115238189697273 4.8060579299926767 12.90351724624634 23.37213230133057 41.963304519653327 1.0000000180025095e-35 11.547051906585695
decision_type=2 2 2 2 2 2 2 2 2
left_child=1 3 5 7 -3 -2 -4 -1 -7
right_child=2 4 6 -5 -6 8 -8 -9 -10
leaf_value=-0.0035846894127982004 0.10944496102405317 0.021708870334668031 0.24197008081384608 -0.0068510286008577215 0.057593503392103944 0.094125759629532693 0.3689619064331055 -0.028211461844376881 0.18234028248076745
leaf_weight=140 66 397 37 844 165 7.9999999999999991 6.9999999999999991 1415 47
leaf_count=140 66 397 37 844 165 8 7 1415 47
internal_value=0 -0.00948396 0.170194 -0.0192594 0.0322444 0.136747 0.262173 -0.0259943 0.169509
internal_weight=0 2961 165 2399 562 121 44 1555 55
internal_count=3126 2961 165 2399 562 121 44 1555 55
is_linear=0
shrinkage=0.005


Tree=13
num_leaves=10
num_cat=0
split_feature=0 7 0 0 0 0 17 0 14
split_gain=199815 47848.1 20102 9832.64 4620.07 4286.05 3759.28 2743.11 2106.74
threshold=18.323736190795902 5.5426411628723153 32.115238189697273 5.4640355110168466 13.469587802886965 23.37213230133057 41.963304519653327 1.0000000180025095e-35 11.547051906585695
decision_type=2 2 2 2 2 2 2 2 2
left_child=1 3 5 7 -3 -2 -4 -1 -7
right_child=2 4 6 -5 -6 8 -8 -9 -10
leaf_value=-0.0035631033735917818 0.10889773694854794 0.02674186237398422 0.2407602325645653 -0.0031077324603948761 0.06112232592894877 0.093655128502286966 0.36711710793631419 -0.026570976775174608 0.18142858626994682
leaf_weight=141 66 329 37 757 139 7.9999999999999991 6.9999999999999991 1595 47
leaf_count=141 66 329 37 757 139 8 7 1595 47
internal_value=0 -0.00943654 0.169343 -0.0181451 0.0369532 0.136063 0.260862 -0.0247022 0.168662
internal_weight=0 2961 165 2493 468 121 44 1736 55
internal_count=3126 2961 165 2493 468 121 44 1736 55
is_linear=0
shrinkage=0.005


Tree=14
num_leaves=10
num_cat=0
split_feature=0 7 0 0 0 0 17 0 14
split_gain=197822 47379.6 19901.5 7870.05 5888.14 4243.3 3721.78 3031.01 2085.73
threshold=18.323736190795902 5.0105977058410653 32.115238189697273 4.8060579299926767 12.90351724624634 23.37213230133057 41.963304519653327 1.0000000180025095e-35 11.547051906585695
decision_type=2 2 2 2 2 2 2 2 2
left_child=1 3 5 7 -3 -2 -4 -1 -7
right_child=2 4 6 -5 -6 8 -8 -9 -10
leaf_value=-0.0035489506040300642 0.10835325053243926 0.021500108846033962 0.23955642854845202 -0.0067774657848604482 0.057037866018035198 0.093186854729428892 0.36528152465820313 -0.02793754987497633 0.18052144740490203
leaf_weight=140 66 397 37 844 165 7.9999999999999991 6.9999999999999991 1415 47
leaf_count=140 66 397 37 844 165 8 7 1415 47
internal_value=0 -0.00938935 0.168496 -0.0190699 0.0319338 0.135383 0.259558 -0.0257418 0.167818
internal_weight=0 2961 165 2399 562 121 44 1555 55
internal_count=3126 2961 165 2399 562 121 44 1555 55
is_linear=0
shrinkage=0.005


Tree=15
num_leaves=10
num_cat=0
split_feature=0 7 0 0 0 0 1 0 0
split_gain=195849 46935.6 19702.9 9643.42 4528.6 4200.97 3685.15 3020.96 2078.42
threshold=18.323736190795902 5.5426411628723153 32.115238189697273 4.8060579299926767 13.469587802886965 23.37213230133057 7907.5000000000009 1.0000000180025095e-35 6.8356626033782968
decision_type=2 2 2 2 2 2 2 2 2
left_child=1 3 5 7 -3 -2 -4 -1 -5
right_child=2 4 6 8 -6 -7 -8 -9 -10
leaf_value=-0.0035284314225328727 0.10781148258483772 0.026493091412273583 0.24007780677393864 -0.012468685914950116 0.060531524724239921 0.16697913950275289 0.37341651598612469 -0.027797862653808122 0.0024352315372215406
leaf_weight=141 66 329 38 486 139 55 5.9999999999999991 1415 451
leaf_count=141 66 329 38 486 139 55 6 1415 451
internal_value=0 -0.00934241 0.167654 -0.0179675 0.0366028 0.134706 0.25826 -0.0255986 -0.00529508
internal_weight=0 2961 165 2493 468 121 44 1556 937
internal_count=3126 2961 165 2493 468 121 44 1556 937
is_linear=0
shrinkage=0.005


Tree=16
num_leaves=10
num_cat=0
split_feature=0 7 0 0 0 0 17 0 14
split_gain=193895 46467.4 19506.4 9548.92 4483.43 4159.07 3657.71 2663.14 2064.92
threshold=18.323736190795902 5.5426411628723153 32.115238189697273 5.4640355110168466 13.469587802886965 23.37213230133057 41.963304519653327 1.0000000180025095e-35 11.547051906585695
decision_type=2 2 2 2 2 2 2 2 2
left_child=1 3 5 7 -3 -2 -4 -1 -7
right_child=2 4 6 -5 -6 8 -8 -9 -10
leaf_value=-0.0035107902495573602 0.10727242644989129 0.026360625837247333 0.23714024105587519 -0.0030588651813635583 0.060228867110588571 0.091886024000123148 0.36177850450788229 -0.026180832128633154 0.17878393599327574
leaf_weight=141 66 329 37 757 139 7.9999999999999991 6.9999999999999991 1595 47
leaf_count=141 66 329 37 757 139 8 7 1595 47
internal_value=0 -0.00929569 0.166815 -0.0178777 0.0364198 0.134032 0.256969 -0.0243395 0.166144
internal_weight=0 2961 165 2493 468 121 44 1736 55
internal_count=3126 2961 165 2493 468 121 44 1736 55
is_linear=0
shrinkage=0.005


Tree=17
num_leaves=10
num_cat=0
split_feature=0 7 0 0 0 0 1 0 14
split_gain=191961 46016.2 19311.8 7642.79 5721.73 4117.58 3621.68 2943.01 2044.33
threshold=18.323736190795902 5.0105977058410653 32.115238189697273 4.8060579299926767 12.90351724624634 23.37213230133057 7907.5000000000009 1.0000000180025095e-35 11.547051906585695
decision_type=2 2 2 2 2 2 2 2 2
left_child=1 3 5 7 -3 -2 -4 -1 -7
right_child=2 4 6 -5 -6 8 -8 -9 -10
leaf_value=-0.0034960098266601566 0.10673606244903622 0.021189836832302942 0.23765891828035052 -0.0066758040704221521 0.056221824189027152 0.091426594387739896 0.36984439531962077 -0.027527968234813675 0.17789001830080722
leaf_weight=140 66 397 38 844 165 7.9999999999999991 5.9999999999999991 1415 47
leaf_count=140 66 397 38 844 165 8 6 1415 47
internal_value=0 -0.00924922 0.165981 -0.0187895 0.031475 0.133362 0.255684 -0.0253643 0.165314
internal_weight=0 2961 165 2399 562 121 44 1555 55
internal_count=3126 2961 165 2399 562 121 44 1555 55
is_linear=0
shrinkage=0.005


Tree=18
num_leaves=10
num_cat=0
split_feature=0 7 0 0 0 0 17 0 0
split_gain=190046 45581.2 19119.2 9372.38 4394.64 4076.51 3594.75 2251.88 2912.14
threshold=18.323736190795902 5.5426411628723153 32.115238189697273 6.4367172718048105 13.469587802886965 23.37213230133057 41.963304519653327 1.0000000180025095e-35 3.6916906833648686
decision_type=2 2 2 2 2 2 2 2 2
left_child=1 3 5 7 -3 -2 -4 -1 -9
right_child=2 4 6 -5 -6 -7 -8 8 -10
leaf_value=-0.0034766307420341681 0.10620238014242865 0.026115419943916036 0.23474837792886269 0.00099972722374580113 0.059646611749697077 0.16448694983395662 0.35830923352922711 -0.029388872946547719 -0.016499794227951538
leaf_weight=141 66 329 37 528 139 55 6.9999999999999991 1092 732
leaf_count=141 66 329 37 528 139 55 7 1092 732
internal_value=0 -0.00920297 0.165151 -0.0177027 0.0360745 0.132695 0.254406 -0.0227281 -0.0242163
internal_weight=0 2961 165 2493 468 121 44 1965 1824
internal_count=3126 2961 165 2493 468 121 44 1965 1824
is_linear=0
shrinkage=0.005


Tree=19
num_leaves=10
num_cat=0
split_feature=0 7 0 0 0 0 1 0 0
split_gain=188151 45126.5 18928.5 9283.36 4350.8 4035.85 3559.3 2904.94 2043.43
threshold=18.323736190795902 5.5426411628723153 32.115238189697273 4.8060579299926767 13.469587802886965 23.37213230133057 7907.5000000000009 1.0000000180025095e-35 12.164309978485109
decision_type=2 2 2 2 2 2 2 2 2
left_child=1 3 5 7 -3 -2 -4 -1 -5
right_child=2 4 6 8 -6 -7 -8 -9 -10
leaf_value=-0.0034592475757953965 0.1056713683587132 0.025984842856513694 0.23526436052824323 -0.0069336882668726875 0.059348378717470514 0.16366451644355601 0.36630660692850747 -0.027258095258379571 0.025919148263335232
leaf_weight=141 66 329 38 887 139 55 5.9999999999999991 1415 50
leaf_count=141 66 329 38 887 139 55 6 1415 50
internal_value=0 -0.00915696 0.164326 -0.0176142 0.0358941 0.132032 0.253134 -0.0251015 -0.0051806
internal_weight=0 2961 165 2493 468 121 44 1556 937
internal_count=3126 2961 165 2493 468 121 44 1556 937
is_linear=0
shrinkage=0.005


Tree=20
num_leaves=10
num_cat=0
split_feature=0 7 0 0 0 0 17 0 14
split_gain=186274 44689 18739.7 7417.43 5556.15 3995.59 3532.87 2856.95 2023.93
threshold=18.323736190795902 5.0105977058410653 32.115238189697273 4.8060579299926767 12.90351724624634 23.37213230133057 41.963304519653327 1.0000000180025095e-35 11.547051906585695
decision_type=2 2 2 2 2 2 2 2 2
left_child=1 3 5 7 -3 -2 -4 -1 -7
right_child=2 4 6 -5 -6 8 -8 -9 -10
leaf_value=-0.0034438506151948656 0.10514301256248444 0.02088622556806962 0.23238060822358 -0.0065791102182738027 0.055407602460998476 0.089328703433275231 0.35487335750034882 -0.027121803905275181 0.17535981827593866
leaf_weight=140 66 397 37 844 165 7.9999999999999991 6.9999999999999991 1415 47
leaf_count=140 66 397 37 844 165 8 7 1415 47
internal_value=0 -0.00911117 0.163504 -0.0185128 0.0310215 0.131372 0.251868 -0.02499 0.162846
internal_weight=0 2961 165 2399 562 121 44 1555 55
internal_count=3126 2961 165 2399 562 121 44 1555 55
is_linear=0
shrinkage=0.005


Tree=21
num_leaves=10
num_cat=0
split_feature=0 7 0 0 0 0 1 0 0
split_gain=184416 44265.9 18552.7 9135.27 4264.62 3955.73 3498 2188.27 2830.74
threshold=18.323736190795902 5.5426411628723153 32.115238189697273 6.4367172718048105 13.469587802886965 23.37213230133057 7907.5000000000009 1.0000000180025095e-35 3.6916906833648686
decision_type=2 2 2 2 2 2 2 2 2
left_child=1 3 5 7 -3 -2 -4 -1 -9
right_child=2 4 6 -5 -6 -7 -8 8 -10
leaf_value=-0.0034255947489687738 0.10461729700310211 0.025743142325193324 0.23289390563964843 0.0010225274938751351 0.058774600132978215 0.1620319664532488 0.36280277252197268 -0.028970028810619271 -0.016262380533999272
leaf_weight=141 66 329 38 528 139 55 5.9999999999999991 1092 732
leaf_count=141 66 329 38 528 139 55 6 1092 732
internal_value=0 -0.00906561 0.162687 -0.0174418 0.0355538 0.130715 0.250609 -0.0224032 -0.0238702
internal_weight=0 2961 165 2493 468 121 44 1965 1824
internal_count=3126 2961 165 2493 468 121 44 1965 1824
is_linear=0
shrinkage=0.005


Tree=22
num_leaves=10
num_cat=0
split_feature=0 7 0 0 0 0 17 0 0
split_gain=182576 43824.3 18367.7 9044.15 4222.08 3916.27 3472.06 2166.44 2802.5
threshold=18.323736190795902 5.5426411628723153 32.115238189697273 6.4367172718048105 13.469587802886965 23.37213230133057 41.963304519653327 1.0000000180025095e-35 3.6916906833648686
decision_type=2 2 2 2 2 2 2 2 2
left_child=1 3 5 7 -3 -2 -4 -1 -9
right_child=2 4 6 -5 -6 -7 -8 8 -10
leaf_value=-0.0034084667582461176 0.10409421229396354 0.02561442629838968 0.23003667805645919 0.0010174149006718035 0.05848072582467212 0.1612218044454401 0.35147056579589847 -0.02882517772305402 -0.016181068284986694
leaf_weight=141 66 329 37 528 139 55 6.9999999999999991 1092 732
leaf_count=141 66 329 37 528 139 55 7 1092 732
internal_value=0 -0.00902029 0.161873 -0.0173546 0.035376 0.130061 0.249356 -0.0222912 -0.0237509
internal_weight=0 2961 165 2493 468 121 44 1965 1824
internal_count=3126 2961 165 2493 468 121 44 1965 1824
is_linear=0
shrinkage=0.005


Tree=23
num_leaves=10
num_cat=0
split_feature=0 7 0 0 0 0 1 0 14
split_gain=180755 43399.1 18184.5 7208.24 5399.61 3877.21 3437.75 2774.48 2003.74
threshold=18.323736190795902 5.0105977058410653 32.115238189697273 4.8060579299926767 12.90351724624634 23.37213230133057 7907.5000000000009 1.0000000180025095e-35 11.547051906585695
decision_type=2 2 2 2 2 2 2 2 2
left_child=1 3 5 7 -3 -2 -4 -1 -7
right_child=2 4 6 -5 -6 8 -8 -9 -10
leaf_value=-0.0033924603611230853 0.1035737413100221 0.020582565309794184 0.23054730340054161 -0.0064759259480294462 0.054614139663450648 0.087265791818499569 0.35933260917663573 -0.026726153578421646 0.17286674580675493
leaf_weight=140 66 397 38 844 165 7.9999999999999991 5.9999999999999991 1415 47
leaf_count=140 66 397 38 844 165 8 6 1415 47
internal_value=0 -0.00897518 0.161064 -0.0182402 0.030574 0.129411 0.248109 -0.0246254 0.160416
internal_weight=0 2961 165 2399 562 121 44 1555 55
internal_count=3126 2961 165 2399 562 121 44 1555 55
is_linear=0
shrinkage=0.005


Tree=24
num_leaves=10
num_cat=0
split_feature=0 7 0 0 0 0 17 0 0
split_gain=178952 42988.5 18003.1 8881.06 4138.42 3838.53 3412.29 2125.02 2748.43
threshold=18.323736190795902 5.5426411628723153 32.115238189697273 6.4367172718048105 13.469587802886965 23.37213230133057 41.963304519653327 1.0000000180025095e-35 3.6916906833648686
decision_type=2 2 2 2 2 2 2 2 2
left_child=1 3 5 7 -3 -2 -4 -1 -9
right_child=2 4 6 -5 -6 -7 -8 8 -10
leaf_value=-0.0033753128508304028 0.10305587125095456 0.025376201076801063 0.22771635725691511 0.0010208538420159708 0.05791525323613942 0.15961361864480106 0.34810052054268975 -0.028547422166320158 -0.016025878631464038
leaf_weight=141 66 329 37 528 139 55 6.9999999999999991 1092 732
leaf_count=141 66 329 37 528 139 55 7 1092 732
internal_value=0 -0.00893031 0.160258 -0.0171848 0.0350406 0.128764 0.246868 -0.0220767 -0.0235223
internal_weight=0 2961 165 2493 468 121 44 1965 1824
internal_count=3126 2961 165 2493 468 121 44 1965 1824
is_linear=0
shrinkage=0.005


Tree=25
num_leaves=10
num_cat=0
split_feature=0 7 0 0 0 0 1 0 0
split_gain=177167 42559.7 17823.5 8792.47 4097.14 3800.24 3378.55 2103.82 2721.01
threshold=18.323736190795902 5.5426411628723153 32.115238189697273 6.4367172718048105 13.469587802886965 23.37213230133057 7907.5000000000009 1.0000000180025095e-35 3.6916906833648686
decision_type=2 2 2 2 2 2 2 2 2
left_child=1 3 5 7 -3 -2 -4 -1 -9
right_child=2 4 6 -5 -6 -7 -8 8 -10
leaf_value=-0.0033584357798099517 0.10254059365752971 0.025249319504550161 0.22822429079758494 0.0010157495761064417 0.057625677090325803 0.15881554721702229 0.35589575449625649 -0.028404683749713413 -0.015945748905066014
leaf_weight=141 66 329 38 528 139 55 5.9999999999999991 1092 732
leaf_count=141 66 329 38 528 139 55 6 1092 732
internal_value=0 -0.00888566 0.159457 -0.0170988 0.0348654 0.12812 0.245634 -0.0219663 -0.0234047
internal_weight=0 2961 165 2493 468 121 44 1965 1824
internal_count=3126 2961 165 2493 468 121 44 1965 1824
is_linear=0
shrinkage=0.005


Tree=26
num_leaves=10
num_cat=0
split_feature=0 7 0 0 0 0 17 0 14
split_gain=175400 42146.3 17645.7 7004.95 5247.54 3762.34 3353.55 2694.39 1983.76
threshold=18.323736190795902 5.0105977058410653 32.115238189697273 4.8060579299926767 12.90351724624634 23.37213230133057 41.963304519653327 1.0000000180025095e-35 11.547051906585695
decision_type=2 2 2 2 2 2 2 2 2
left_child=1 3 5 7 -3 -2 -4 -1 -7
right_child=2 4 6 -5 -6 8 -8 -9 -10
leaf_value=-0.0033418297565409117 0.10202789132342194 0.020283239876818598 0.22541940328237173 -0.0063743503063352193 0.053832178420189662 0.085237314626574523 0.34476292746407644 -0.026336273657783286 0.17041026774873125
leaf_weight=140 66 397 37 844 165 7.9999999999999991 6.9999999999999991 1415 47
leaf_count=140 66 397 37 844 165 8 7 1415 47
internal_value=0 -0.00884123 0.15866 -0.0179715 0.030133 0.12748 0.244406 -0.024266 0.158021
internal_weight=0 2961 165 2399 562 121 44 1555 55
internal_count=3126 2961 165 2399 562 121 44 1555 55
is_linear=0
shrinkage=0.005


Tree=27
num_leaves=10
num_cat=0
split_feature=0 7 0 0 0 0 1 0 0
split_gain=173650 41748 17469.7 8633.95 4015.93 3724.81 3320.36 2063.6 2668.51
threshold=18.323736190795902 5.5426411628723153 32.115238189697273 6.4367172718048105 13.469587802886965 23.37213230133057 7907.5000000000009 1.0000000180025095e-35 3.6916906833648686
decision_type=2 2 2 2 2 2 2 2 2
left_child=1 3 5 7 -3 -2 -4 -1 -9
right_child=2 4 6 -5 -6 -7 -8 8 -10
leaf_value=-0.0033257729089851925 0.10151775185808991 0.025014519453682799 0.22592466580240353 0.0010190399418669668 0.057068387518683789 0.15723136794567108 0.35249191284179687 -0.028130979198594017 -0.015792838350661059
leaf_weight=141 66 329 38 528 139 55 5.9999999999999991 1092 732
leaf_count=141 66 329 38 528 139 55 6 1092 732
internal_value=0 -0.00879702 0.157867 -0.0169315 0.0345348 0.126842 0.243184 -0.0217549 -0.0231795
internal_weight=0 2961 165 2493 468 121 44 1965 1824
internal_count=3126 2961 165 2493 468 121 44 1965 1824
is_linear=0
shrinkage=0.005


Tree=28
num_leaves=10
num_cat=0
split_feature=0 7 0 0 0 0 17 0 0
split_gain=171918 41331.6 17295.4 8547.82 3975.87 3687.65 3295.82 2043.01 2641.89
threshold=18.323736190795902 5.5426411628723153 32.115238189697273 6.4367172718048105 13.469587802886965 23.37213230133057 41.963304519653327 1.0000000180025095e-35 3.6916906833648686
decision_type=2 2 2 2 2 2 2 2 2
left_child=1 3 5 7 -3 -2 -4 -1 -9
right_child=2 4 6 -5 -6 -7 -8 8 -10
leaf_value=-0.0033091433895817883 0.10101016224333734 0.024889445942133031 0.22314558261149639 0.0010139448906182115 0.056783044612664972 0.15644520530917427 0.3414574704851423 -0.027990324169315479 -0.01571387413868813
leaf_weight=141 66 329 37 528 139 55 6.9999999999999991 1092 732
leaf_count=141 66 329 37 528 139 55 7 1092 732
internal_value=0 -0.00875304 0.157077 -0.0168469 0.0343621 0.126208 0.241968 -0.0216461 -0.0230636
internal_weight=0 2961 165 2493 468 121 44 1965 1824
internal_count=3126 2961 165 2493 468 121 44 1965 1824
is_linear=0
shrinkage=0.005


Tree=29
num_leaves=10
num_cat=0
split_feature=0 7 0 0 0 0 1 0 14
split_gain=170203 40929.8 17122.9 6807.39 5099.82 3650.87 3263.17 2616.61 1963.97
threshold=18.323736190795902 5.0105977058410653 32.115238189697273 4.8060579299926767 12.90351724624634 23.37213230133057 7907.5000000000009 1.0000000180025095e-35 11.547051906585695
decision_type=2 2 2 2 2 2 2 2 2
left_child=1 3 5 7 -3 -2 -4 -1 -7
right_child=2 4 6 -5 -6 8 -8 -9 -10
leaf_value=-0.0032919452711939814 0.10050511049501823 0.019988187970007096 0.22364818246741044 -0.0062743574863749945 0.05306155160092043 0.083242745026946063 0.34912076314290369 -0.025952079745779608 0.16798982772421331
leaf_weight=140 66 397 38 844 165 7.9999999999999991 5.9999999999999991 1415 47
leaf_count=140 66 397 38 844 165 8 6 1415 47
internal_value=0 -0.00870927 0.156292 -0.0177068 0.0296983 0.125577 0.240758 -0.0239119 0.155663
internal_weight=0 2961 165 2399 562 121 44 1555 55
internal_count=3126 2961 165 2399 562 121 44 1555 55
is_linear=0
shrinkage=0.005


Tree=30
num_leaves=10
num_cat=0
split_feature=0 7 0 0 0 0 17 0 0
split_gain=168505 40543.3 16952.1 8393.73 3897.03 3614.45 3239.09 2003.95 2590.9
threshold=18.323736190795902 5.5426411628723153 32.115238189697273 6.4367172718048105 13.469587802886965 23.37213230133057 41.963304519653327 1.0000000180025095e-35 3.6916906833648686
decision_type=2 2 2 2 2 2 2 2 2
left_child=1 3 5 7 -3 -2 -4 -1 -9
right_child=2 4 6 -5 -6 -7 -8 8 -10
leaf_value=-0.0032769641945970818 0.10000258623650581 0.024658021372502337 0.22089464935096534 0.0010170901193332887 0.05623382161418311 0.15488466934724288 0.33818381718226836 -0.02772061294852159 -0.015563208750281178
leaf_weight=141 66 329 37 528 139 55 6.9999999999999991 1092 732
leaf_count=141 66 329 37 528 139 55 7 1092 732
internal_value=0 -0.00866573 0.15551 -0.016682 0.0340363 0.124949 0.239554 -0.0214378 -0.0228417
internal_weight=0 2961 165 2493 468 121 44 1965 1824
internal_count=3126 2961 165 2493 468 121 44 1965 1824
is_linear=0
shrinkage=0.005


Tree=31
num_leaves=10
num_cat=0
split_feature=0 7 0 0 0 0 1 0 0
split_gain=166824 40138.9 16783 8310.01 3858.16 3578.4 3206.97 1983.96 2565.06
threshold=18.323736190795902 5.5426411628723153 32.115238189697273 6.4367172718048105 13.469587802886965 23.37213230133057 7907.5000000000009 1.0000000180025095e-35 3.6916906833648686
decision_type=2 2 2 2 2 2 2 2 2
left_child=1 3 5 7 -3 -2 -4 -1 -9
right_child=2 4 6 -5 -6 -7 -8 8 -10
leaf_value=-0.0032605782986109984 0.099502570412375702 0.0245347315344767 0.22139460563659669 0.0010120046604248328 0.055952652019562489 0.15411024631153455 0.34578199386596681 -0.027582010491563506 -0.015485393312947997
leaf_weight=141 66 329 38 528 139 55 5.9999999999999991 1092 732
leaf_count=141 66 329 38 528 139 55 6 1092 732
internal_value=0 -0.0086224 0.154733 -0.0165986 0.0338661 0.124324 0.238357 -0.0213306 -0.0227274
internal_weight=0 2961 165 2493 468 121 44 1965 1824
internal_count=3126 2961 165 2493 468 121 44 1965 1824
is_linear=0
shrinkage=0.005


Tree=32
num_leaves=10
num_cat=0
split_feature=0 7 0 0 0 0 17 0 14
split_gain=165160 39748.2 16615.6 6615.4 4956.32 3542.7 3183.33 2541.08 1944.38
threshold=18.323736190795902 5.0105977058410653 32.115238189697273 4.8060579299926767 12.90351724624634 23.37213230133057 41.963304519653327 1.0000000180025095e-35 11.547051906585695
decision_type=2 2 2 2 2 2 2 2 2
left_child=1 3 5 7 -3 -2 -4 -1 -7
right_child=2 4 6 -5 -6 8 -8 -9 -10
leaf_value=-0.003242797953741891 0.099005058023965711 0.019697347680852757 0.21866639987842459 -0.0061759242192970069 0.052302092590510399 0.08128155857324601 0.33494168417794362 -0.025573489101636537 0.1656049109519796
leaf_weight=140 66 397 37 844 165 7.9999999999999991 6.9999999999999991 1415 47
leaf_count=140 66 397 37 844 165 8 7 1415 47
internal_value=0 -0.00857929 0.153959 -0.017446 0.0292699 0.123703 0.237165 -0.023563 0.15334
internal_weight=0 2961 165 2399 562 121 44 1555 55
internal_count=3126 2961 165 2399 562 121 44 1555 55
is_linear=0
shrinkage=0.005


Tree=33
num_leaves=10
num_cat=0
split_feature=0 7 0 7 0 0 1 0 14
split_gain=163514 34339.2 21255.1 6415.64 5834.01 4702.69 3151.74 2491.74 1682.52
threshold=16.754392623901371 4.3644473552703866 32.115238189697273 14.170852661132814 8.8850913047790545 4.8060579299926767 7907.5000000000009 1.0000000180025095e-35 12.441867351531984
decision_type=2 2 2 2 2 2 2 2 2
left_child=1 5 3 -2 -3 7 -4 -1 -6
right_child=2 4 6 -5 8 -7 -8 -9 -10
leaf_value=-0.0032771583151643292 0.07737585326222933 0.0029178779594117572 0.21916370693006013 0.14200768015266937 0.028725128319762802 -0.0081771319206978971 0.34247526486714686 -0.025618353225928488 0.054347848728582074
leaf_weight=137 73 247 38 81 339 724 5.9999999999999991 1402 79
leaf_count=137 73 247 38 81 339 724 6 1402 79
internal_value=0 -0.00940373 0.139061 0.111371 0.0221835 -0.0186859 0.235979 -0.0236296 0.0335677
internal_weight=0 2928 198 154 665 2263 44 1539 418
internal_count=3126 2928 198 154 665 2263 44 1539 418
is_linear=0
shrinkage=0.005


Tree=34
num_leaves=10
num_cat=0
split_feature=0 7 0 0 0 0 17 0 0
split_gain=161905 39012.2 16281.5 8085.6 3756.64 3488.33 3128.54 1927.73 2493.02
threshold=18.323736190795902 5.5426411628723153 32.115238189697273 6.4367172718048105 13.469587802886965 23.37213230133057 41.963304519653327 1.0000000180025095e-35 3.6916906833648686
decision_type=2 2 2 2 2 2 2 2 2
left_child=1 3 5 7 -3 -2 -4 -1 -9
right_child=2 4 6 -5 -6 -7 -8 8 -10
leaf_value=-0.0032133683615119747 0.097976264154369178 0.024185848642355765 0.21646058005255622 0.0010134233997175187 0.055187670139314457 0.15189233827590942 0.3317307662963867 -0.027188271455766952 -0.015262717765659257
leaf_weight=141 66 329 37 528 139 55 6.9999999999999991 1092 732
leaf_count=141 66 329 37 528 139 55 7 1092 732
internal_value=0 -0.00849432 0.152434 -0.0163578 0.0333937 0.122484 0.234799 -0.0210254 -0.0224024
internal_weight=0 2961 165 2493 468 121 44 1965 1824
internal_count=3126 2961 165 2493 468 121 44 1965 1824
is_linear=0
shrinkage=0.005


Tree=35
num_leaves=10
num_cat=0
split_feature=0 7 0 7 0 0 1 0 14
split_gain=160316 33678.4 20824.4 6299.39 5732.88 4609.58 3097.45 2443.27 1661.04
threshold=16.754392623901371 4.3644473552703866 32.115238189697273 14.170852661132814 8.8850913047790545 4.8060579299926767 7907.5000000000009 1.0000000180025095e-35 12.441867351531984
decision_type=2 2 2 2 2 2 2 2 2
left_child=1 5 3 -2 -3 7 -4 -1 -6
right_child=2 4 6 -5 8 -7 -8 -9 -10
leaf_value=-0.0032447051479868646 0.07660038426008127 0.002872593072638941 0.21695525470532867 0.14064399529386448 0.028444046960116137 -0.0080994987597133323 0.33920028368631999 -0.025367547807771281 0.053902638519206382
leaf_weight=137 73 247 38 81 339 724 5.9999999999999991 1402 79
leaf_count=137 73 247 38 81 339 724 6 1402 79
internal_value=0 -0.0093113 0.137694 0.110286 0.0219705 -0.0185037 0.233625 -0.0233982 0.0332556
internal_weight=0 2928 198 154 665 2263 44 1539 418
internal_count=3126 2928 198 154 665 2263 44 1539 418
is_linear=0
shrinkage=0.005


Tree=36
num_leaves=10
num_cat=0
split_feature=0 7 0 0 0 0 8 0 3
split_gain=158716 33342.4 20625 5675.7 5349.91 4563.6 3733.89 2418.9 1756.54
threshold=16.754392623901371 4.3644473552703866 25.625626564025882 8.8850913047790545 45.079969406127937 4.8060579299926767 1381.5000000000002 1.0000000180025095e-35 7.9421966075897226
decision_type=2 2 2 2 2 2 2 2 2
left_child=1 5 6 -3 -4 7 8 -1 -2
right_child=2 3 4 -5 -6 -7 -8 -9 -10
leaf_value=-0.0032284826105528504 0.08454229027032853 0.0028582300505174802 0.18396214617021156 0.033089320602064785 0.30306444341486155 -0.0080590011896719913 0.11766982989091622 -0.025240709670047448 0.020110218121724973
leaf_weight=137 28 247 66 418 10.999999999999998 724 76 1402 17
leaf_count=137 28 247 66 418 11 724 76 1402 17
internal_value=0 -0.00926475 0.137006 0.0218606 0.200977 -0.0184112 0.0962972 -0.0232812 0.0602013
internal_weight=0 2928 198 665 77 2263 121 1539 45
internal_count=3126 2928 198 665 77 2263 121 1539 45
is_linear=0
shrinkage=0.005


Tree=37
num_leaves=10
num_cat=0
split_feature=0 7 0 0 0 0 17 14 0
split_gain=157169 37911.9 15824.2 7859.94 3670.97 3396.51 3057.01 1910.49 1872.77
threshold=18.323736190795902 5.5426411628723153 32.115238189697273 6.4367172718048105 13.469587802886965 23.37213230133057 41.963304519653327 11.547051906585695 1.0000000180025095e-35
decision_type=2 2 2 2 2 2 2 2 2
left_child=1 3 5 8 -3 -2 -4 -7 -1
right_child=2 4 6 -5 -6 7 -8 -9 -10
leaf_value=-0.0031666668921920427 0.096478660517569745 0.023821658027842415 0.21326059960030222 0.0010061379307598779 0.054467944552143703 0.07825303345918655 0.32720557621547153 0.16183825888532272 -0.022080157197973072
leaf_weight=141 66 329 37 528 139 7.9999999999999991 6.9999999999999991 47 1824
leaf_count=141 66 329 37 528 139 8 7 47 1824
internal_value=0 -0.00836916 0.150188 -0.0161209 0.0329239 0.120661 0.231388 0.14968 -0.020723
internal_weight=0 2961 165 2493 468 121 44 55 1965
internal_count=3126 2961 165 2493 468 121 44 55 1965
is_linear=0
shrinkage=0.005


Tree=38
num_leaves=10
num_cat=0
split_feature=0 7 0 7 0 0 17 0 14
split_gain=155611 32706.1 20238.7 6129.65 5574.75 4489.67 3026.52 2374.14 1639.85
threshold=16.754392623901371 4.3644473552703866 32.115238189697273 14.170852661132814 8.8850913047790545 4.8060579299926767 41.963304519653327 1.0000000180025095e-35 12.441867351531984
decision_type=2 2 2 2 2 2 2 2 2
left_child=1 5 3 -2 -3 7 -4 -1 -6
right_child=2 4 6 -5 8 -7 -8 -9 -10
leaf_value=-0.003196506117382189 0.075410244915991617 0.0028205842065138491 0.21219429480062948 0.13858511432453438 0.028000859733791829 -0.0079644270043065044 0.32556953975132535 -0.025004105452612873 0.053296567292153076
leaf_weight=137 73 247 37 81 339 724 6.9999999999999991 1402 79
leaf_count=137 73 247 37 81 339 724 7 1402 79
internal_value=0 -0.00917367 0.135659 0.108639 0.0216532 -0.0182324 0.230231 -0.0230628 0.0327816
internal_weight=0 2928 198 154 665 2263 44 1539 418
internal_count=3126 2928 198 154 665 2263 44 1539 418
is_linear=0
shrinkage=0.005


Tree=39
num_leaves=10
num_cat=0
split_feature=0 7 0 0 0 0 1 14 0
split_gain=154071 37189.6 15506 7710.41 3610.41 3344.41 3001.88 1888.76 1836.65
threshold=18.323736190795902 5.5426411628723153 32.115238189697273 6.4367172718048105 13.469587802886965 23.37213230133057 7907.5000000000009 11.547051906585695 1.0000000180025095e-35
decision_type=2 2 2 2 2 2 2 2 2
left_child=1 3 5 8 -3 -2 -4 -7 -1
right_child=2 4 6 -5 -6 7 -8 -9 -10
leaf_value=-0.0031357039912795343 0.095475637090928628 0.023584683095430534 0.21266953869869834 0.00099953174506398762 0.053977141048518015 0.077247812151908873 0.3330137793223063 0.16035630089171388 -0.021865925432801688
leaf_weight=141 66 329 38 528 139 7.9999999999999991 5.9999999999999991 47 1824
leaf_count=141 66 329 38 528 139 8 6 47 1824
internal_value=0 -0.00828627 0.148701 -0.0159638 0.0326115 0.119472 0.22908 0.148268 -0.0205219
internal_weight=0 2961 165 2493 468 121 44 55 1965
internal_count=3126 2961 165 2493 468 121 44 55 1965
is_linear=0
shrinkage=0.005


Tree=40
num_leaves=10
num_cat=0
split_feature=0 7 0 7 0 0 17 0 14
split_gain=152567 32081.8 19828.6 6016.02 5475.62 4416.97 2974.4 2330.21 1618.94
threshold=16.754392623901371 4.3644473552703866 32.115238189697273 14.170852661132814 8.8850913047790545 4.8060579299926767 41.963304519653327 1.0000000180025095e-35 12.441867351531984
decision_type=2 2 2 2 2 2 2 2 2
left_child=1 5 3 -2 -3 7 -4 -1 -6
right_child=2 4 6 -5 8 -7 -8 -9 -10
leaf_value=-0.003164844752228173 0.074661337723062465 0.0027833575661282851 0.21005371918549409 0.13724790275832752 0.027726621493081777 -0.0078708596478437604 0.32244853973388671 -0.024769755966653158 0.052860559669523674
leaf_weight=137 73 247 37 81 339 724 6.9999999999999991 1402 79
leaf_count=137 73 247 37 81 339 724 7 1402 79
internal_value=0 -0.0090835 0.134326 0.10758 0.0214478 -0.0180554 0.227935 -0.0228465 0.0324768
internal_weight=0 2928 198 154 665 2263 44 1539 418
internal_count=3126 2928 198 154 665 2263 44 1539 418
is_linear=0
shrinkage=0.005


Tree=41
num_leaves=10
num_cat=0
split_feature=0 7 0 0 0 0 8 0 3
split_gain=151045 31761.8 19655.8 5421 5149.66 4372.91 3613.91 2306.97 1736.61
threshold=16.754392623901371 4.3644473552703866 25.625626564025882 8.8850913047790545 45.079969406127937 4.8060579299926767 1381.5000000000002 1.0000000180025095e-35 7.9421966075897226
decision_type=2 2 2 2 2 2 2 2 2
left_child=1 5 6 -3 -4 7 8 -1 -2
right_child=2 3 4 -5 -6 -7 -8 -9 -10
leaf_value=-0.0031490206892472983 0.082604600467852174 0.0027694404933051122 0.17941054526603584 0.032314431352761429 0.29626263098283245 -0.0078315052562727711 0.11493979132489153 -0.024645907061437568 0.018539119266411837
leaf_weight=137 28 247 66 418 10.999999999999998 724 76 1402 17
leaf_count=137 28 247 66 418 11 724 76 1402 17
internal_value=0 -0.00903808 0.133654 0.0213406 0.196104 -0.0179651 0.0939134 -0.0227323 0.0584021
internal_weight=0 2928 198 665 77 2263 121 1539 45
internal_count=3126 2928 198 665 77 2263 121 1539 45
is_linear=0
shrinkage=0.005


Tree=42
num_leaves=10
num_cat=0
split_feature=0 7 0 0 0 0 1 14 0
split_gain=149564 36140.9 15070.4 7495.16 3530.8 3256.53 2930.71 1858.6 1784.29
threshold=18.323736190795902 5.5426411628723153 32.115238189697273 6.4367172718048105 12.90351724624634 23.37213230133057 7907.5000000000009 11.547051906585695 1.0000000180025095e-35
decision_type=2 2 2 2 2 2 2 2 2
left_child=1 3 5 8 -3 -2 -4 -7 -1
right_child=2 4 6 -5 -6 7 -8 -9 -10
leaf_value=-0.0030901394277176959 0.094015382628774999 0.022581461172728311 0.20953703679536517 0.0009921946237569279 0.051858605684505565 0.07565852798521519 0.32844618161519373 0.15810094376827807 -0.021551430554253261
leaf_weight=141 66 315 38 528 153 7.9999999999999991 5.9999999999999991 47 1824
leaf_count=141 66 315 38 528 153 8 6 47 1824
internal_value=0 -0.00816417 0.14651 -0.0157327 0.0321528 0.117694 0.225752 0.146109 -0.0202267
internal_weight=0 2961 165 2493 468 121 44 55 1965
internal_count=3126 2961 165 2493 468 121 44 55 1965
is_linear=0
shrinkage=0.005


Tree=43
num_leaves=10
num_cat=0
split_feature=0 7 0 7 0 0 17 0 14
split_gain=148092 31155.1 19270.4 5853.43 5323.74 4302.12 2906.35 2264.28 1598.34
threshold=16.754392623901371 4.3644473552703866 32.115238189697273 14.170852661132814 8.8850913047790545 4.8060579299926767 41.963304519653327 1.0000000180025095e-35 12.441867351531984
decision_type=2 2 2 2 2 2 2 2 2
left_child=1 5 3 -2 -3 7 -4 -1 -6
right_child=2 4 6 -5 8 -7 -8 -9 -10
leaf_value=-0.0031178253410506424 0.073503783269185718 0.0027340109036624555 0.20694789499849886 0.13523880175602288 0.027292909105624288 -0.0077393931267237624 0.31804955618722097 -0.024414920150149566 0.052266392632847353
leaf_weight=137 73 247 37 81 339 724 6.9999999999999991 1402 79
leaf_count=137 73 247 37 81 339 724 7 1402 79
internal_value=0 -0.0089493 0.132341 0.105975 0.0211378 -0.0177906 0.224623 -0.0225191 0.0320128
internal_weight=0 2928 198 154 665 2263 44 1539 418
internal_count=3126 2928 198 154 665 2263 44 1539 418
is_linear=0
shrinkage=0.005


Tree=44
num_leaves=10
num_cat=0
split_feature=0 7 0 0 0 0 1 0 14
split_gain=146616 35452.4 14767.4 7358.44 3472.61 3206.62 2880.24 2031.55 1837.49
threshold=18.323736190795902 5.5426411628723153 32.115238189697273 5.4640355110168466 12.90351724624634 23.37213230133057 7907.5000000000009 1.0000000180025095e-35 11.547051906585695
decision_type=2 2 2 2 2 2 2 2 2
left_child=1 3 5 7 -3 -2 -4 -1 -7
right_child=2 4 6 -5 -6 8 -8 -9 -10
leaf_value=-0.0030599298238331548 0.093037478869893789 0.022355671421284713 0.20742537347893966 -0.0025708610289379504 0.05139055366305257 0.074681211113929752 0.32530629793802895 -0.022860100077938136 0.15665394529383234
leaf_weight=141 66 315 38 757 153 7.9999999999999991 5.9999999999999991 1595 47
leaf_count=141 66 315 38 757 153 8 6 1595 47
internal_value=0 -0.0080833 0.145059 -0.0155794 0.0318478 0.116534 0.2235 -0.0212519 0.144731
internal_weight=0 2961 165 2493 468 121 44 1736 55
internal_count=3126 2961 165 2493 468 121 44 1736 55
is_linear=0
shrinkage=0.005


Tree=45
num_leaves=10
num_cat=0
split_feature=0 7 0 0 0 0 8 0 3
split_gain=145198 30564.5 18890.1 5228.89 4991.43 4218.8 3519.19 2220.8 1717.12
threshold=16.754392623901371 4.3644473552703866 25.625626564025882 8.8850913047790545 45.079969406127937 4.8060579299926767 1381.5000000000002 1.0000000180025095e-35 7.9421966075897226
decision_type=2 2 2 2 2 2 2 2 2
left_child=1 5 6 -3 -4 7 8 -1 -2
right_child=2 3 4 -5 -6 -7 -8 -9 -10
leaf_value=-0.003086936308519684 0.081106235810688557 0.0027000493658442611 0.17582822512496601 0.031716805123523518 0.29087110519409182 -0.0076651421967296974 0.11283177139531626 -0.024178544903298928 0.017401312548009789
leaf_weight=137 28 247 66 418 10.999999999999998 724 76 1402 17
leaf_count=137 28 247 66 418 11 724 76 1402 17
internal_value=0 -0.00886143 0.131042 0.0209392 0.192263 -0.0176186 0.0920827 -0.022301 0.0570399
internal_weight=0 2928 198 665 77 2263 121 1539 45
internal_count=3126 2928 198 665 77 2263 121 1539 45
is_linear=0
shrinkage=0.005


Tree=46
num_leaves=10
num_cat=0
split_feature=0 7 0 7 0 0 17 0 14
split_gain=143750 30259.6 18727.6 5694.87 5176.73 4176.71 2839.86 2198.65 1577.95
threshold=16.754392623901371 4.3644473552703866 32.115238189697273 14.170852661132814 8.8850913047790545 4.8060579299926767 41.963304519653327 1.0000000180025095e-35 12.441867351531984
decision_type=2 2 2 2 2 2 2 2 2
left_child=1 5 3 -2 -3 7 -4 -1 -6
right_child=2 4 6 -5 8 -7 -8 -9 -10
leaf_value=-0.0030715015291297521 0.072365962351123761 0.0026865491312117835 0.20388768943580421 0.13325910332946131 0.026868557277956985 -0.0076268167913124711 0.31371116638183594 -0.024057652288449981 0.051682223041034953
leaf_weight=137 73 247 37 81 339 724 6.9999999999999991 1402 79
leaf_count=137 73 247 37 81 339 724 7 1402 79
internal_value=0 -0.00881712 0.130386 0.104394 0.0208345 -0.0175305 0.22136 -0.0221895 0.0315582
internal_weight=0 2928 198 154 665 2263 44 1539 418
internal_count=3126 2928 198 154 665 2263 44 1539 418
is_linear=0
shrinkage=0.005


Tree=47
num_leaves=10
num_cat=0
split_feature=0 7 0 0 0 0 1 14 0
split_gain=142327 34452.8 14352.5 7162.87 3395.95 3122.43 2811.92 1808.23 1700.96
threshold=18.323736190795902 5.5426411628723153 32.115238189697273 6.4367172718048105 13.469587802886965 23.37213230133057 7907.5000000000009 11.547051906585695 1.0000000180025095e-35
decision_type=2 2 2 2 2 2 2 2 2
left_child=1 3 5 8 -3 -2 -4 -7 -1
right_child=2 4 6 -5 -6 7 -8 -9 -10
leaf_value=-0.003015475851212833 0.091613835412444486 0.022645389615635225 0.20436995041997807 0.00099610599137094774 0.05212135297145775 0.07313436437398195 0.32084424972534181 0.15445190023868643 -0.021040522673544105
leaf_weight=141 66 329 38 528 139 7.9999999999999991 5.9999999999999991 47 1824
leaf_count=141 66 329 38 528 139 8 6 47 1824
internal_value=0 -0.00796418 0.142921 -0.0153539 0.0314 0.1148 0.220253 0.142624 -0.0197471
internal_weight=0 2961 165 2493 468 121 44 55 1965
internal_count=3126 2961 165 2493 468 121 44 55 1965
is_linear=0
shrinkage=0.005


Tree=48
num_leaves=10
num_cat=0
split_feature=0 7 0 0 0 0 8 0 3
split_gain=140938 29681.9 18348.5 5084.68 4871.81 4109.1 3445.29 2157.97 1698.83
threshold=16.754392623901371 4.3644473552703866 25.625626564025882 8.8850913047790545 45.079969406127937 4.8060579299926767 1381.5000000000002 1.0000000180025095e-35 7.9421966075897226
decision_type=2 2 2 2 2 2 2 2 2
left_child=1 5 6 -3 -4 7 8 -1 -2
right_child=2 3 4 -5 -6 -7 -8 -9 -10
leaf_value=-0.0030410667405511346 0.079973152226635383 0.0026508847841246407 0.17320524360194353 0.031264711573127317 0.28686115004799584 -0.0075370495562642314 0.11123833288732721 -0.023832160901389857 0.016608350925585803
leaf_weight=137 28 247 66 418 10.999999999999998 724 76 1402 17
leaf_count=137 28 247 66 418 11 724 76 1402 17
internal_value=0 -0.00873044 0.129105 0.0206367 0.189442 -0.0173602 0.0907083 -0.0219814 0.0560353
internal_weight=0 2928 198 665 77 2263 121 1539 45
internal_count=3126 2928 198 665 77 2263 121 1539 45
is_linear=0
shrinkage=0.005


Tree=49
num_leaves=10
num_cat=0
split_feature=0 7 0 0 0 0 17 14 0
split_gain=139535 33791.1 14093.6 7027.23 3341.24 3057.02 2774.91 1781.97 1668.16
threshold=18.323736190795902 5.5426411628723153 32.115238189697273 6.4367172718048105 12.90351724624634 23.37213230133057 41.963304519653327 11.547051906585695 1.0000000180025095e-35
decision_type=2 2 2 2 2 2 2 2 2
left_child=1 3 5 8 -3 -2 -4 -7 -1
right_child=2 4 6 -5 -6 7 -8 -9 -10
leaf_value=-0.0029859998071870061 0.090704360049302601 0.021787773287781174 0.2008724831246041 0.00099035070757522723 0.050268149467465148 0.072194187976419924 0.30943284170968194 0.15291909050434194 -0.020836406748562134
leaf_weight=141 66 315 37 528 153 7.9999999999999991 6.9999999999999991 47 1824
leaf_count=141 66 315 37 528 153 8 7 47 1824
internal_value=0 -0.0078857 0.141512 -0.0152041 0.0310987 0.113647 0.218143 0.141177 -0.0195555
internal_weight=0 2961 165 2493 468 121 44 55 1965
internal_count=3126 2961 165 2493 468 121 44 55 1965
is_linear=0
shrinkage=0.005


Tree=50
num_leaves=10
num_cat=0
split_feature=0 7 0 7 0 0 17 0 14
split_gain=138182 29114.8 18011.4 5493.19 4993.48 4042.61 2747.24 2118.05 1553.61
threshold=16.754392623901371 4.3644473552703866 32.115238189697273 14.170852661132814 8.8850913047790545 4.8060579299926767 41.963304519653327 1.0000000180025095e-35 12.441867351531984
decision_type=2 2 2 2 2 2 2 2 2
left_child=1 5 3 -2 -3 7 -4 -1 -6
right_child=2 4 6 -5 8 -7 -8 -9 -10
leaf_value=-0.0030109312194977361 0.070889939333069821 0.0026167812981918032 0.1998681135435362 0.13069513188284121 0.026319488506478458 -0.007448241575235162 0.30788567679268974 -0.023608817968214631 0.050941081199370609
leaf_weight=137 73 247 37 81 339 724 6.9999999999999991 1402 79
leaf_count=137 73 247 37 81 339 724 7 1402 79
internal_value=0 -0.00864467 0.127836 0.102346 0.0204406 -0.0171916 0.217053 -0.0217752 0.0309729
internal_weight=0 2928 198 154 665 2263 44 1539 418
internal_count=3126 2928 198 154 665 2263 44 1539 418
is_linear=0
shrinkage=0.005


Tree=51
num_leaves=10
num_cat=0
split_feature=0 7 0 7 0 0 1 0 14
split_gain=136804 28824.4 17831.7 5438.4 4943.67 4002.28 2725.12 2096.92 1538.12
threshold=16.754392623901371 4.3644473552703866 32.115238189697273 14.170852661132814 8.8850913047790545 4.8060579299926767 7907.5000000000009 1.0000000180025095e-35 12.441867351531984
decision_type=2 2 2 2 2 2 2 2 2
left_child=1 5 3 -2 -3 7 -4 -1 -6
right_child=2 4 6 -5 8 -7 -8 -9 -10
leaf_value=-0.0029958768743668157 0.07053549001274044 0.0026036973516287108 0.20033164865092229 0.13004165668178488 0.026187891018601642 -0.0074110005120875426 0.3149943161010742 -0.023490774089552878 0.050686375745395314
leaf_weight=137 73 247 38 81 339 724 5.9999999999999991 1402 79
leaf_count=137 73 247 38 81 339 724 6 1402 79
internal_value=0 -0.00860145 0.127197 0.101834 0.0203384 -0.0171056 0.215967 -0.0216663 0.030818
internal_weight=0 2928 198 154 665 2263 44 1539 418
internal_count=3126 2928 198 154 665 2263 44 1539 418
is_linear=0
shrinkage=0.005


Tree=52
num_leaves=10
num_cat=0
split_feature=0 7 0 0 0 0 11 0 17
split_gain=135439 28536.9 17682.3 5448.54 4894.36 3962.36 2786.2 2076 1545.69
threshold=16.754392623901371 4.3644473552703866 24.703744888305668 40.97724914550782 8.8850913047790545 4.8060579299926767 0.041641132906079299 1.0000000180025095e-35 41.963304519653327
decision_type=2 2 2 2 2 2 2 2 2
left_child=1 5 6 -4 -3 7 -2 -1 -5
right_child=2 4 3 8 -6 -7 -8 -9 -10
leaf_value=-0.0029808974048517044 0.044128024897748419 0.0025906790434741056 0.15667408444664696 0.22186848402023313 0.030663897541115443 -0.0073739454767651324 0.10006229952920842 -0.023373320021808742 0.31597208340962729
leaf_weight=137 31 247 66 16.000000000000004 418 724 79 1402 5.9999999999999991
leaf_count=137 31 247 66 16 418 724 79 1402 6
internal_value=0 -0.00855844 0.126561 0.179389 0.0202367 -0.0170201 0.084299 -0.021558 0.247533
internal_weight=0 2928 198 88 665 2263 110 1539 22
internal_count=3126 2928 198 88 665 2263 110 1539 22
is_linear=0
shrinkage=0.005


Tree=53
num_leaves=10
num_cat=0
split_feature=0 7 0 0 0 0 17 14 0
split_gain=134108 32540 13551.8 6769.11 3247.31 2959.27 2672.68 1756.78 1605.37
threshold=18.323736190795902 5.5426411628723153 32.115238189697273 6.4367172718048105 13.469587802886965 23.37213230133057 41.963304519653327 11.547051906585695 1.0000000180025095e-35
decision_type=2 2 2 2 2 2 2 2 2
left_child=1 3 5 8 -3 -2 -4 -7 -1
right_child=2 4 6 -5 -6 7 -8 -9 -10
leaf_value=-0.002928515172807883 0.088835799412971192 0.021964142888976902 0.1969272925402667 0.00098177875095809062 0.050787826860122544 0.07000144939869643 0.30346901212419786 0.15015369826174799 -0.02043978102416364
leaf_weight=141 66 329 37 528 139 7.9999999999999991 6.9999999999999991 47 1824
leaf_count=141 66 329 37 528 139 8 7 47 1824
internal_value=0 -0.00773083 0.138733 -0.0149124 0.030525 0.111408 0.213877 0.138495 -0.0191832
internal_weight=0 2961 165 2493 468 121 44 55 1965
internal_count=3126 2961 165 2493 468 121 44 55 1965
is_linear=0
shrinkage=0.005


Tree=54
num_leaves=10
num_cat=0
split_feature=0 7 0 0 0 0 11 0 14
split_gain=132789 27991.9 17322.7 5355.66 4807.31 3898.26 2744.45 2037.59 1518.6
threshold=16.754392623901371 4.3644473552703866 24.703744888305668 40.97724914550782 8.8850913047790545 4.8060579299926767 0.041641132906079299 1.0000000180025095e-35 12.441867351531984
decision_type=2 2 2 2 2 2 2 2 2
left_child=1 5 6 -4 -3 7 -2 -1 -6
right_child=2 4 3 -5 8 -7 -8 -9 -10
leaf_value=-0.0029513500119647839 0.043617626220708895 0.0025561633262677712 0.15508427876414677 0.24516551624644886 0.025777981393149116 -0.0072869514150658201 0.099131275566318372 -0.023154255519973143 0.050120563250553758
leaf_weight=137 31 247 66 22 339 724 79 1402 79
leaf_count=137 31 247 66 22 339 724 79 1402 79
internal_value=0 -0.00847429 0.125317 0.177605 0.0200446 -0.0168548 0.0834865 -0.0213558 0.0303786
internal_weight=0 2928 198 88 665 2263 110 1539 418
internal_count=3126 2928 198 88 665 2263 110 1539 418
is_linear=0
shrinkage=0.005


Tree=55
num_leaves=10
num_cat=0
split_feature=0 7 0 0 0 0 1 14 0
split_gain=131466 31916.7 13301.7 6641.51 3192.77 2895.82 2639.38 1736.75 1574.42
threshold=18.323736190795902 5.5426411628723153 32.115238189697273 6.4367172718048105 12.90351724624634 23.37213230133057 7907.5000000000009 11.547051906585695 1.0000000180025095e-35
decision_type=2 2 2 2 2 2 2 2 2
left_child=1 3 5 8 -3 -2 -4 -7 -1
right_child=2 4 6 -5 -6 7 -8 -9 -10
leaf_value=-0.0028998969241659693 0.087959048411611354 0.021131681093620878 0.19641924293417681 0.00097690832596554456 0.048972118119009179 0.068980931742116808 0.30926352500915527 0.14867512702941896 -0.020241515594636696
leaf_weight=141 66 315 38 528 153 7.9999999999999991 5.9999999999999991 47 1824
leaf_count=141 66 315 38 528 153 8 6 47 1824
internal_value=0 -0.0076543 0.13736 -0.0147668 0.0302334 0.110288 0.211807 0.137083 -0.0189972
internal_weight=0 2961 165 2493 468 121 44 55 1965
internal_count=3126 2961 165 2493 468 121 44 55 1965
is_linear=0
shrinkage=0.005


Tree=56
num_leaves=10
num_cat=0
split_feature=0 7 0 0 0 7 8 0 17
split_gain=130208 25201.9 20115.6 5261.7 4955.62 2720.33 2658.5 2018.41 1498.8
threshold=16.034737586975101 5.0105977058410653 24.703744888305668 40.97724914550782 4.8060579299926767 7.658708095550538 1381.5000000000002 1.0000000180025095e-35 41.963304519653327
decision_type=2 2 2 2 2 2 2 2 2
left_child=1 4 6 -4 7 -3 -2 -1 -5
right_child=2 5 3 8 -6 -7 -8 -9 -10
leaf_value=-0.0028802714539425713 0.053285238993969759 0.013803056090273574 0.15351609425111251 0.21753131210803983 -0.0058952585904097007 0.037447974147076533 0.098417548466320726 -0.022782333617391518 0.31019677797953288
leaf_weight=140 59 318 66 16.000000000000004 836 197 73 1415 5.9999999999999991
leaf_count=140 59 318 66 16 836 197 73 1415 6
internal_value=0 -0.00887889 0.117282 0.175838 -0.0157125 0.0228478 0.0782448 -0.0209905 0.242804
internal_weight=0 2906 220 88 2391 515 132 1555 22
internal_count=3126 2906 220 88 2391 515 132 1555 22
is_linear=0
shrinkage=0.005


Tree=57
num_leaves=10
num_cat=0
split_feature=0 7 0 0 0 7 8 0 17
split_gain=128910 24950.5 19915 5209.22 4906.18 2693.2 2631.98 1998.28 1483.85
threshold=16.034737586975101 5.0105977058410653 24.703744888305668 40.97724914550782 4.8060579299926767 7.658708095550538 1381.5000000000002 1.0000000180025095e-35 41.963304519653327
decision_type=2 2 2 2 2 2 2 2 2
left_child=1 4 6 -4 7 -3 -2 -1 -5
right_child=2 5 3 8 -6 -7 -8 -9 -10
leaf_value=-0.0028658705917852267 0.053018812753133852 0.013734040796381873 0.15274851479313589 0.21644366264343259 -0.0058657824796620028 0.037260734688509538 0.097925459775971627 -0.022668421975820731 0.3086457920074463
leaf_weight=140 59 318 66 16.000000000000004 836 197 73 1415 5.9999999999999991
leaf_count=140 59 318 66 16 836 197 73 1415 6
internal_value=0 -0.0088345 0.116696 0.174959 -0.015634 0.0227336 0.0778535 -0.0208856 0.24159
internal_weight=0 2906 220 88 2391 515 132 1555 22
internal_count=3126 2906 220 88 2391 515 132 1555 22
is_linear=0
shrinkage=0.005


Tree=58
num_leaves=10
num_cat=0
split_feature=0 7 0 0 0 0 17 14 0
split_gain=127653 30981.6 12936.6 6471.29 3111.78 2795.96 2564.66 1712.12 1529.89
threshold=18.323736190795902 5.5426411628723153 32.115238189697273 6.4367172718048105 13.469587802886965 23.37213230133057 41.963304519653327 11.547051906585695 1.0000000180025095e-35
decision_type=2 2 2 2 2 2 2 2 2
left_child=1 3 5 8 -3 -2 -4 -7 -1
right_child=2 4 6 -5 -6 7 -8 -9 -10
leaf_value=-0.0028578472475633554 0.08671488699856017 0.021405743109373702 0.19216766679609143 0.00099061998115344482 0.049621539301366258 0.06736708169803024 0.29653412955147879 0.14649397994609589 -0.019952441363354424
leaf_weight=141 66 329 37 528 139 7.9999999999999991 6.9999999999999991 47 1824
leaf_count=141 66 329 37 528 139 8 7 47 1824
internal_value=0 -0.00754248 0.135353 -0.01455 0.0297861 0.108656 0.208771 0.134985 -0.0187258
internal_weight=0 2961 165 2493 468 121 44 55 1965
internal_count=3126 2961 165 2493 468 121 44 55 1965
is_linear=0
shrinkage=0.005


Tree=59
num_leaves=10
num_cat=0
split_feature=0 7 0 7 0 0 1 0 14
split_gain=126403 26694.2 16527.1 5072.66 4621.27 3728.41 2542.64 1943.55 1486.68
threshold=16.754392623901371 4.3644473552703866 32.115238189697273 14.170852661132814 8.8850913047790545 4.8060579299926767 7907.5000000000009 1.0000000180025095e-35 12.441867351531984
decision_type=2 2 2 2 2 2 2 2 2
left_child=1 5 3 -2 -3 7 -4 -1 -6
right_child=2 4 6 -5 8 -7 -8 -9 -10
leaf_value=-0.0028790736241932338 0.067620705378382176 0.0024352878552337406 0.19262433152449759 0.12509109181202488 0.025162043402460477 -0.007094864542930495 0.30338135083516438 -0.022610260619650383 0.049247449987296819
leaf_weight=137 73 247 38 81 339 724 5.9999999999999991 1402 79
leaf_count=137 73 247 38 81 339 724 6 1402 79
internal_value=0 -0.008268 0.122266 0.0978486 0.019582 -0.0164519 0.207728 -0.0208538 0.0297141
internal_weight=0 2928 198 154 665 2263 44 1539 418
internal_count=3126 2928 198 154 665 2263 44 1539 418
is_linear=0
shrinkage=0.005


Tree=60
num_leaves=10
num_cat=0
split_feature=0 7 0 0 0 7 8 0 3
split_gain=125168 24222.7 19333.6 5075.23 4775.33 2637.18 2573.21 1941.66 1468.85
threshold=16.034737586975101 5.0105977058410653 24.703744888305668 40.97724914550782 4.8060579299926767 7.658708095550538 1381.5000000000002 1.0000000180025095e-35 7.9421966075897226
decision_type=2 2 2 2 2 2 2 2 2
left_child=1 4 6 -4 7 -3 8 -1 -2
right_child=2 5 3 -5 -6 -7 -8 -9 -10
leaf_value=-0.0028234253387366022 0.069356788232922559 0.013493481068256891 0.15047329671455154 0.23816444353623822 -0.0057678765677913815 0.036774231493851256 0.096565155603297759 -0.022343417925358659 0.01596453401603197
leaf_weight=140 40 318 66 22 836 197 73 1415 19
leaf_count=140 40 318 66 22 836 197 73 1415 19
internal_value=0 -0.00870534 0.11499 0.172396 -0.0154049 0.0223989 0.0767186 -0.020586 0.0521627
internal_weight=0 2906 220 88 2391 515 132 1555 59
internal_count=3126 2906 220 88 2391 515 132 1555 59
is_linear=0
shrinkage=0.005


Tree=61
num_leaves=10
num_cat=0
split_feature=0 7 0 0 0 14 17 0 0
split_gain=123932 30092.9 12563.5 6298.45 3037.68 2727.61 2511.43 1848.1 1726.31
threshold=18.323736190795902 5.5426411628723153 32.115238189697273 5.4640355110168466 12.90351724624634 11.547051906585695 41.963304519653327 23.37213230133057 1.0000000180025095e-35
decision_type=2 2 2 2 2 2 2 2 2
left_child=1 3 5 8 -3 -2 -4 -7 -1
right_child=2 4 6 -5 -6 7 -8 -9 -10
leaf_value=-0.0028163771035400686 0.075082990700422333 0.020479667549568509 0.18928676399024758 -0.0023028280569518493 0.047635496597664029 0.094714242200697629 0.29256458554949083 0.14444790667675911 -0.021068526953038375
leaf_weight=141 43 315 37 757 153 31 6.9999999999999991 47 1595
leaf_count=141 43 315 37 757 153 31 7 47 1595
internal_value=0 -0.00743172 0.133366 -0.014338 0.0293575 0.107056 0.205717 0.124682 -0.0195861
internal_weight=0 2961 165 2493 468 121 44 78 1736
internal_count=3126 2961 165 2493 468 121 44 78 1736
is_linear=0
shrinkage=0.005


Tree=62
num_leaves=10
num_cat=0
split_feature=0 7 0 0 0 7 8 0 3
split_gain=122737 23748 18934.6 4989.1 4685.19 2593.07 2531.49 1904.27 1455.15
threshold=16.034737586975101 5.0105977058410653 24.703744888305668 40.97724914550782 4.8060579299926767 7.658708095550538 1381.5000000000002 1.0000000180025095e-35 7.9421966075897226
decision_type=2 2 2 2 2 2 2 2 2
left_child=1 4 6 -4 7 -3 8 -1 -2
right_child=2 5 3 -5 -6 -7 -8 -9 -10
leaf_value=-0.002795226985854762 0.06875116907060147 0.013346921217703969 0.14894240836302439 0.23588635011152789 -0.0057083308854269568 0.036432133911527352 0.095678530437489084 -0.022126357198182772 0.015608562827110291
leaf_weight=140 40 318 66 22 836 197 73 1415 19
leaf_count=140 40 318 66 22 836 197 73 1415 19
internal_value=0 -0.00862039 0.113867 0.170678 -0.015254 0.0221776 0.0759935 -0.0203859 0.0516374
internal_weight=0 2906 220 88 2391 515 132 1555 59
internal_count=3126 2906 220 88 2391 515 132 1555 59
is_linear=0
shrinkage=0.005


Tree=63
num_leaves=10
num_cat=0
split_feature=0 7 0 7 0 0 17 0 14
split_gain=121515 25695.8 15908.8 4886.64 4477.75 3576.48 2477.45 1868.61 1459.53
threshold=16.754392623901371 4.3644473552703866 32.115238189697273 14.170852661132814 8.8850913047790545 4.8060579299926767 41.963304519653327 1.0000000180025095e-35 12.441867351531984
decision_type=2 2 2 2 2 2 2 2 2
left_child=1 5 3 -2 -3 7 -4 -1 -6
right_child=2 4 6 -5 8 -7 -8 -9 -10
leaf_value=-0.002822503517143918 0.066254178325403229 0.0023392693576240828 0.18740763367833319 0.12266100171907449 0.024680854444306861 -0.0069715664776566931 0.28998443875994001 -0.022169517783558371 0.048545335018182104
leaf_weight=137 73 247 37 81 339 724 6.9999999999999991 1402 79
leaf_count=137 73 247 37 81 339 724 7 1402 79
internal_value=0 -0.00810658 0.119879 0.0959227 0.0192176 -0.016136 0.203727 -0.0204473 0.0291911
internal_weight=0 2928 198 154 665 2263 44 1539 418
internal_count=3126 2928 198 154 665 2263 44 1539 418
is_linear=0
shrinkage=0.005


Tree=64
num_leaves=10
num_cat=0
split_feature=0 7 0 0 0 7 8 0 3
split_gain=120327 23283 18578.8 4898.23 4589.5 2561.41 2488.28 1866.47 1443.17
threshold=16.034737586975101 5.0105977058410653 24.703744888305668 40.97724914550782 4.8060579299926767 6.8464000225067148 1381.5000000000002 1.0000000180025095e-35 7.9421966075897226
decision_type=2 2 2 2 2 2 2 2 2
left_child=1 4 6 -4 7 -3 8 -1 -2
right_child=2 5 3 -5 -6 -7 -8 -9 -10
leaf_value=-0.0027676915686045372 0.068123365735635155 0.010434485320824695 0.1474815315550024 0.23363000176169657 -0.0056560020436171856 0.0327482345838912 0.094743794978481455 -0.021906003993868422 0.01520000547170639
leaf_weight=140 40 249 66 22 836 266 73 1415 19
leaf_count=140 40 249 66 22 836 266 73 1415 19
internal_value=0 -0.00853533 0.112744 0.169019 -0.0151037 0.0219596 0.0752275 -0.0201829 0.0510802
internal_weight=0 2906 220 88 2391 515 132 1555 59
internal_count=3126 2906 220 88 2391 515 132 1555 59
is_linear=0
shrinkage=0.005


Tree=65
num_leaves=10
num_cat=0
split_feature=0 7 0 0 0 14 1 0 0
split_gain=119160 28938 12092.3 6094.95 2941.85 2638.98 2446.58 1787.57 1431.67
threshold=18.323736190795902 5.5426411628723153 32.115238189697273 6.4367172718048105 12.90351724624634 11.547051906585695 7907.5000000000009 23.37213230133057 1.0000000180025095e-35
decision_type=2 2 2 2 2 2 2 2 2
left_child=1 3 5 8 -3 -2 -4 -7 -1
right_child=2 4 6 -5 -6 7 -8 -9 -10
leaf_value=-0.0027621406052552215 0.073512495420006818 0.02005243897497181 0.18694005966186525 0.0010222469664630338 0.04677648298539757 0.092826063421464738 0.29558484077453612 0.14173845910011454 -0.019298897762302914
leaf_weight=141 43 315 38 528 153 31 5.9999999999999991 47 1824
leaf_count=141 43 315 38 528 153 31 6 47 1824
internal_value=0 -0.00728726 0.130773 -0.0140597 0.0287891 0.104962 0.201755 0.122299 -0.0181123
internal_weight=0 2961 165 2493 468 121 44 78 1965
internal_count=3126 2961 165 2493 468 121 44 78 1965
is_linear=0
shrinkage=0.005


Tree=66
num_leaves=10
num_cat=0
split_feature=0 7 0 0 0 7 8 0 3
split_gain=117988 22824.3 18195.6 4812.7 4514.67 2519.2 2448.32 1831.84 1429.65
threshold=16.034737586975101 5.0105977058410653 24.703744888305668 40.97724914550782 4.8060579299926767 7.658708095550538 1381.5000000000002 1.0000000180025095e-35 7.9421966075897226
decision_type=2 2 2 2 2 2 2 2 2
left_child=1 4 6 -4 7 -3 8 -1 -2
right_child=2 5 3 -5 -6 -7 -8 -9 -10
leaf_value=-0.0027400423597012248 0.067525735557777813 0.013037139982594259 0.14598593728108841 0.23137900092385033 -0.0055849473761410218 0.035791181307096923 0.093874176912111779 -0.021699979430795137 0.014850804641058571
leaf_weight=140 40 318 66 22 836 197 73 1415 19
leaf_count=140 40 318 66 22 836 197 73 1415 19
internal_value=0 -0.00845197 0.111643 0.167334 -0.0149553 0.0217411 0.0745152 -0.019993 0.0505626
internal_weight=0 2906 220 88 2391 515 132 1555 59
internal_count=3126 2906 220 88 2391 515 132 1555 59
is_linear=0
shrinkage=0.005


Tree=67
num_leaves=10
num_cat=0
split_feature=0 7 0 0 0 14 17 0 0
split_gain=116836 28367.9 11864.9 5986.33 2889.93 2590.53 2417.42 1751.59 1404.23
threshold=18.323736190795902 5.5426411628723153 32.115238189697273 6.4367172718048105 13.469587802886965 11.547051906585695 41.963304519653327 23.37213230133057 1.0000000180025095e-35
decision_type=2 2 2 2 2 2 2 2 2
left_child=1 3 5 8 -3 -2 -4 -7 -1
right_child=2 4 6 -5 -6 7 -8 -9 -10
leaf_value=-0.0027351904591770039 0.072764728810898099 0.020427342124218203 0.18368297680004222 0.0010257154538042166 0.047618712557734345 0.091926557094820074 0.28500928606305803 0.14034418988735117 -0.019112736434344378
leaf_weight=141 43 329 37 528 139 31 6.9999999999999991 47 1824
leaf_count=141 43 329 37 528 139 31 7 47 1824
internal_value=0 -0.00721585 0.129492 -0.0139213 0.0285034 0.103924 0.199803 0.121101 -0.0179376
internal_weight=0 2961 165 2493 468 121 44 78 1965
internal_count=3126 2961 165 2493 468 121 44 78 1965
is_linear=0
shrinkage=0.005


Tree=68
num_leaves=10
num_cat=0
split_feature=0 7 0 0 0 7 8 0 3
split_gain=115692 22375.3 17821.1 4731.05 4441.08 2481.15 2409.06 1797.86 1416.23
threshold=16.034737586975101 5.0105977058410653 24.703744888305668 40.97724914550782 4.8060579299926767 6.8464000225067148 1381.5000000000002 1.0000000180025095e-35 7.9421966075897226
decision_type=2 2 2 2 2 2 2 2 2
left_child=1 4 6 -4 7 -3 8 -1 -2
right_child=2 5 3 -5 -6 -7 -8 -9 -10
leaf_value=-0.0027126655099647384 0.066931194460950791 0.010182145486724185 0.14449997623761496 0.2291655193675648 -0.0055146953950326394 0.032143520454060347 0.093010753785094172 -0.021495915269156649 0.014504024080540006
leaf_weight=140 40 249 66 22 836 266 73 1415 19
leaf_count=140 40 249 66 22 836 266 73 1415 19
internal_value=0 -0.00836932 0.110551 0.165666 -0.0148084 0.0215253 0.0738076 -0.0198048 0.0500479
internal_weight=0 2906 220 88 2391 515 132 1555 59
internal_count=3126 2906 220 88 2391 515 132 1555 59
is_linear=0
shrinkage=0.005


Tree=69
num_leaves=10
num_cat=0
split_feature=0 7 0 0 0 14 17 0 0
split_gain=114558 27805.2 11641.8 6075.66 2707.31 2542.99 2384.77 1716.36 1377.32
threshold=18.323736190795902 5.6037356853485116 32.115238189697273 6.4367172718048105 13.469587802886965 11.547051906585695 41.963304519653327 23.37213230133057 1.0000000180025095e-35
decision_type=2 2 2 2 2 2 2 2 2
left_child=1 3 5 8 -3 -2 -4 -7 -1
right_child=2 4 6 -5 -6 7 -8 -9 -10
leaf_value=-0.0027084083369014957 0.072024464281492451 0.020699088146281356 0.18185899979359396 0.0011717993563937921 0.047164849770798101 0.091035565926182657 0.28249888556344166 0.13896378732742146 -0.018928255882030433
leaf_weight=141 43 317 37 540 139 31 6.9999999999999991 47 1824
leaf_count=141 43 317 37 540 139 31 7 47 1824
internal_value=0 -0.00714513 0.128223 -0.0136823 0.0287665 0.102896 0.19787 0.119915 -0.0177644
internal_weight=0 2961 165 2505 456 121 44 78 1965
internal_count=3126 2961 165 2505 456 121 44 78 1965
is_linear=0
shrinkage=0.005


Tree=70
num_leaves=10
num_cat=0
split_feature=0 7 0 0 7 0 8 7 3
split_gain=113440 21943.2 17454.2 4650.78 3755.71 3326.75 2370.47 1749.77 1402.93
threshold=16.034737586975101 4.3644473552703866 24.703744888305668 40.97724914550782 6.8464000225067148 4.8060579299926767 1381.5000000000002 1.0000000180025095e-35 7.9421966075897226
decision_type=2 2 2 2 2 2 2 2 2
left_child=1 5 6 -4 -3 7 8 -1 -2
right_child=2 4 3 -5 -6 -7 -8 -9 -10
leaf_value=-0.0021539259973422501 0.06634199854545296 0.0073289523197038195 0.14302889717347694 0.22697315606203947 0.031838513576229549 -0.0067710533569930662 0.092155507860118391 -0.021392609652835244 0.014161567264481595
leaf_weight=129 40 379 66 22 266 722 73 1410 19
leaf_count=129 40 379 66 22 266 722 73 1410 19
internal_value=0 -0.00828748 0.10947 0.164015 0.0174368 -0.0156259 0.0731068 -0.01978 0.0495381
internal_weight=0 2906 220 88 645 2261 132 1539 59
internal_count=3126 2906 220 88 645 2261 132 1539 59
is_linear=0
shrinkage=0.005


Tree=71
num_leaves=10
num_cat=0
split_feature=0 7 0 7 0 0 1 0 14
split_gain=112328 23807.2 14735.7 4538.75 4220.31 3327.14 2354.38 1735.04 1419.51
threshold=16.754392623901371 4.3644473552703866 32.115238189697273 14.170852661132814 8.8850913047790545 4.8060579299926767 7907.5000000000009 1.0000000180025095e-35 12.441867351531984
decision_type=2 2 2 2 2 2 2 2 2
left_child=1 5 3 -2 -3 7 -4 -1 -6
right_child=2 4 6 -5 8 -7 -8 -9 -10
leaf_value=-0.0026979377865791322 0.063609351229994268 0.0021208183283385959 0.18142218715266178 0.11797123937695116 0.02374132279867092 -0.0066836318679575849 0.28800008138020833 -0.021340663915077562 0.04727633949982215
leaf_weight=137 73 247 38 81 339 724 5.9999999999999991 1402 79
leaf_count=137 73 247 38 81 339 724 6 1402 79
internal_value=0 -0.00779412 0.115259 0.0922023 0.0185067 -0.0155228 0.195956 -0.0196811 0.0281893
internal_weight=0 2928 198 154 665 2263 44 1539 418
internal_count=3126 2928 198 154 665 2263 44 1539 418
is_linear=0
shrinkage=0.005


Tree=72
num_leaves=10
num_cat=0
split_feature=0 7 0 0 0 14 17 0 3
split_gain=111218 27011.8 11306.2 5910.31 2641.57 2481.46 2335.38 1677.5 1361.75
threshold=18.323736190795902 5.6037356853485116 32.115238189697273 6.4367172718048105 13.469587802886965 11.547051906585695 41.963304519653327 23.37213230133057 8.7925658226013201
decision_type=2 2 2 2 2 2 2 2 2
left_child=1 3 5 -1 -3 8 -4 -7 -2
right_child=2 4 6 -5 -6 7 -8 -9 -10
leaf_value=-0.01750959914338801 0.10105912989377976 0.020386527894587735 0.17913154408738421 0.001167124271461809 0.046529010644169165 0.089642063744606523 0.27872373580932619 0.13702461580012709 0.044646784689115447
leaf_weight=1965 20 317 37 540 139 31 6.9999999999999991 47 23
leaf_count=1965 20 317 37 540 139 31 7 47 23
internal_value=0 -0.00704021 0.12634 -0.0134835 0.0283554 0.101381 0.194976 0.118193 0.0708851
internal_weight=0 2961 165 2505 456 121 44 78 43
internal_count=3126 2961 165 2505 456 121 44 78 43
is_linear=0
shrinkage=0.005


Tree=73
num_leaves=10
num_cat=0
split_feature=0 7 0 0 0 7 8 0 0
split_gain=110147 21306 16942.8 4535.92 4247.83 2395.44 2319.8 1732.38 1455.14
threshold=16.034737586975101 5.0105977058410653 24.703744888305668 45.079969406127937 4.8060579299926767 7.658708095550538 1381.5000000000002 1.0000000180025095e-35 32.115238189697273
decision_type=2 2 2 2 2 2 2 2 2
left_child=1 4 6 8 7 -3 -2 -1 -4
right_child=2 5 3 -5 -6 -7 -8 -9 -10
leaf_value=-0.0025581080679382595 0.048727191646220323 0.01251775875605596 0.12921745793385939 0.25658438942649148 -0.0053603674187748277 0.034705837883509054 0.090886608705128713 -0.020996132957113924 0.17313971230477995
leaf_weight=140 59 318 44 10.999999999999998 836 197 73 1415 33
leaf_count=140 59 318 44 11 836 197 73 1415 33
internal_value=0 -0.00816629 0.107869 0.161609 -0.0144496 0.0210052 0.0720426 -0.0193361 0.148041
internal_weight=0 2906 220 88 2391 515 132 1555 77
internal_count=3126 2906 220 88 2391 515 132 1555 77
is_linear=0
shrinkage=0.005


Tree=74
num_leaves=10
num_cat=0
split_feature=0 7 0 0 7 0 8 7 3
split_gain=109048 21106.4 16773.8 4492.7 3631.81 3205.51 2296.66 1726.41 1387.97
threshold=16.034737586975101 4.3644473552703866 24.703744888305668 40.97724914550782 6.8464000225067148 4.7212378978729257 1381.5000000000002 1.0000000180025095e-35 7.9421966075897226
decision_type=2 2 2 2 2 2 2 2 2
left_child=1 5 6 -4 -3 7 8 -1 -2
right_child=2 4 3 -5 -6 -7 -8 -9 -10
leaf_value=-0.0020048940274142481 0.065197574425488708 0.0071638500888028369 0.14017480457370932 0.22268007105047052 0.031265740709561382 -0.0068385005483638508 0.090432174458895634 -0.021128578790763197 0.013296149341683638
leaf_weight=129 40 379 66 22 266 746 73 1386 19
leaf_count=129 40 379 66 22 266 746 73 1386 19
internal_value=0 -0.00812546 0.10733 0.160801 0.0171035 -0.0153226 0.0716824 -0.0195002 0.0484836
internal_weight=0 2906 220 88 645 2261 132 1515 59
internal_count=3126 2906 220 88 645 2261 132 1515 59
is_linear=0
shrinkage=0.005


Tree=75
num_leaves=10
num_cat=0
split_feature=0 7 0 0 0 14 17 0 3
split_gain=107995 26223.7 10976.4 5756.98 2573.68 2419.42 2293.2 1629.98 1352.67
threshold=18.323736190795902 5.6037356853485116 32.115238189697273 6.4367172718048105 13.469587802886965 11.547051906585695 41.963304519653327 23.37213230133057 8.7925658226013201
decision_type=2 2 2 2 2 2 2 2 2
left_child=1 3 5 -1 -3 8 -4 -7 -2
right_child=2 4 6 -5 -6 7 -8 -9 -10
leaf_value=-0.017259599116164006 0.09986503344774246 0.02007214257540622 0.17642326586955304 0.0011732692675561541 0.045876481053988928 0.08836084858063728 0.27511193411690849 0.13506748562163495 0.04364105393057284
leaf_weight=1965 20 317 37 540 139 31 6.9999999999999991 47 23
leaf_count=1965 20 317 37 540 139 31 7 47 23
internal_value=0 -0.00693747 0.124496 -0.013286 0.0279379 0.0999042 0.192124 0.116505 0.0697917
internal_weight=0 2961 165 2505 456 121 44 78 43
internal_count=3126 2961 165 2505 456 121 44 78 43
is_linear=0
shrinkage=0.005


Tree=76
num_leaves=10
num_cat=0
split_feature=0 7 0 7 0 0 1 0 14
split_gain=106930 22690.7 14018.4 4341.71 4066.06 3182.87 2274.33 1709.79 1394.56
threshold=16.754392623901371 4.3644473552703866 32.115238189697273 14.170852661132814 8.8850913047790545 4.7212378978729257 7907.5000000000009 1.0000000180025095e-35 32.318965911865241
decision_type=2 2 2 2 2 2 2 2 2
left_child=1 5 3 -2 -3 7 -4 -1 -6
right_child=2 4 6 -5 8 -7 -8 -9 -10
leaf_value=-0.0024703377702810468 0.06200128881184206 0.0019885120622300909 0.17687897594351518 0.11517005696708774 0.02600611843224936 -0.0067108039654552301 0.28162935892740887 -0.020991254929096287 0.080697936577101559
leaf_weight=137 73 247 38 81 406 748 5.9999999999999991 1378 11.999999999999998
leaf_count=137 73 247 38 81 406 748 6 1378 12
internal_value=0 -0.00760452 0.112455 0.0899667 0.0180722 -0.0151498 0.191163 -0.0193164 0.0275762
internal_weight=0 2928 198 154 665 2263 44 1515 418
internal_count=3126 2928 198 154 665 2263 44 1515 418
is_linear=0
shrinkage=0.005


Tree=77
num_leaves=10
num_cat=0
split_feature=0 7 0 0 7 0 8 7 0
split_gain=105882 20491.6 16282.2 4397.72 3547.92 3120.22 2248.52 1695.07 1391.22
threshold=16.034737586975101 4.3644473552703866 24.703744888305668 45.079969406127937 6.8464000225067148 4.7212378978729257 1381.5000000000002 1.0000000180025095e-35 32.115238189697273
decision_type=2 2 2 2 2 2 2 2 2
left_child=1 5 6 8 -3 7 -2 -1 -4
right_child=2 4 3 -5 -6 -7 -8 -9 -10
leaf_value=-0.0018840163899946584 0.047684555773512792 0.007028003901398021 0.12667660476131873 0.25195918690074576 0.030849907467547892 -0.0067276967531095079 0.089191186493390223 -0.020833352788164675 0.16962334040439492
leaf_weight=129 59 379 44 10.999999999999998 266 746 73 1386 33
leaf_count=129 59 379 44 11 266 746 73 1386 33
internal_value=0 -0.00800662 0.10576 0.158442 0.0168522 -0.0150982 0.070639 -0.0192198 0.145082
internal_weight=0 2906 220 88 645 2261 132 1515 77
internal_count=3126 2906 220 88 645 2261 132 1515 77
is_linear=0
shrinkage=0.005


Tree=78
num_leaves=10
num_cat=0
split_feature=0 7 0 0 0 14 17 0 3
split_gain=104843 25475.8 10642.3 5601.63 2514.34 2364.9 2243.25 1599.4 1345.19
threshold=18.323736190795902 5.6037356853485116 32.115238189697273 6.4367172718048105 13.469587802886965 11.547051906585695 41.963304519653327 19.9098653793335 8.7925658226013201
decision_type=2 2 2 2 2 2 2 2 2
left_child=1 3 5 -1 -3 8 -4 -7 -2
right_child=2 4 6 -5 -6 7 -8 -9 -10
leaf_value=-0.01701244344435272 0.098669815327972171 0.019764394349732938 0.17372772719409013 0.0011700362702486691 0.045269526500161063 0.064235983720192541 0.2713356971740723 0.12498889963443462 0.042601574967088905
leaf_weight=1965 20 317 37 540 139 12.999999999999998 6.9999999999999991 65 23
leaf_count=1965 20 317 37 540 139 13 7 65 23
internal_value=0 -0.00683548 0.122666 -0.0130929 0.027539 0.0984511 0.189256 0.114863 0.0686798
internal_weight=0 2961 165 2505 456 121 44 78 43
internal_count=3126 2961 165 2505 456 121 44 78 43
is_linear=0
shrinkage=0.005


Tree=79
num_leaves=10
num_cat=0
split_feature=0 7 0 0 0 0 8 0 14
split_gain=103821 20099.6 15958.4 4323.79 3499.47 3067.93 2215.77 1678.75 1401.49
threshold=16.034737586975101 4.3644473552703866 24.703744888305668 45.079969406127937 8.8850913047790545 4.7212378978729257 1381.5000000000002 1.0000000180025095e-35 13.686358451843263
decision_type=2 2 2 2 2 2 2 2 2
left_child=1 5 6 -4 -3 7 -2 -1 -6
right_child=2 4 3 -5 8 -7 -8 -9 -10
leaf_value=-0.0023462150262220064 0.047168882987461982 0.0019078298109024576 0.14363434340659675 0.24960892070423474 0.021721065427783549 -0.0066516496303014394 0.088372213215860612 -0.020698238782400839 0.047103206693194809
leaf_weight=137 59 247 77 10.999999999999998 333 746 73 1378 65
leaf_count=137 59 247 77 11 333 746 73 1378 65
internal_value=0 -0.00792831 0.104726 0.156881 0.0166916 -0.0149517 0.0699556 -0.0190387 0.0258664
internal_weight=0 2906 220 88 645 2261 132 1515 398
internal_count=3126 2906 220 88 645 2261 132 1515 398
is_linear=0
shrinkage=0.005


Tree=80
num_leaves=10
num_cat=0
split_feature=0 7 0 0 0 14 1 0 3
split_gain=102795 24984.5 10453.7 5495.9 2466.65 2321.91 2207.92 1573.78 1336.07
threshold=18.323736190795902 5.6037356853485116 32.115238189697273 6.4367172718048105 13.469587802886965 11.547051906585695 7907.5000000000009 19.9098653793335 8.7925658226013201
decision_type=2 2 2 2 2 2 2 2 2
left_child=1 3 5 -1 -3 8 -4 -7 -2
right_child=2 4 6 -5 -6 7 -8 -9 -10
leaf_value=-0.016847547605974983 0.097851184969767926 0.019572545409882704 0.17338530289499385 0.0011625037026005212 0.044834643062606129 0.063504638213377734 0.27659495353698732 0.12376898547319266 0.041973366338921625
leaf_weight=1965 20 317 38 540 139 12.999999999999998 5.9999999999999991 65 23
leaf_count=1965 20 317 38 540 139 13 6 65 23
internal_value=0 -0.00676838 0.121462 -0.0129651 0.0272731 0.0974624 0.187459 0.113725 0.067963
internal_weight=0 2961 165 2505 456 121 44 78 43
internal_count=3126 2961 165 2505 456 121 44 78 43
is_linear=0
shrinkage=0.005


Tree=81
num_leaves=10
num_cat=0
split_feature=0 7 0 0 0 0 8 7 1
split_gain=101800 19715 15640.9 4249.14 3437.7 3016.54 2184.27 1664.31 1440
threshold=16.034737586975101 4.3644473552703866 24.703744888305668 45.079969406127937 8.8850913047790545 4.7212378978729257 1335.5000000000002 1.0000000180025095e-35 2364.5000000000005
decision_type=2 2 2 2 2 2 2 2 2
left_child=1 5 6 -4 -3 7 8 -1 -2
right_child=2 4 3 -5 -6 -7 -8 -9 -10
leaf_value=-0.0016814729132393533 0.061619991011917591 0.0018797428116413503 0.14220360322432085 0.2472593827681108 0.025625929451973443 -0.0065764020826797392 0.086738068147709499 -0.020458049417928958 0.0054951765201985839
leaf_weight=129 40 247 77 10.999999999999998 398 746 76 1386 15.999999999999998
leaf_count=129 40 247 77 11 398 746 76 1386 16
internal_value=0 -0.00785077 0.103702 0.155336 0.0165324 -0.0148066 0.0692789 -0.0188593 0.0455843
internal_weight=0 2906 220 88 645 2261 132 1515 56
internal_count=3126 2906 220 88 645 2261 132 1515 56
is_linear=0
shrinkage=0.005


Tree=82
num_leaves=10
num_cat=0
split_feature=0 7 0 7 0 0 17 0 14
split_gain=100788 21394.5 13243.6 4113.1 3864.18 3015.27 2178.22 1648.27 1372.58
threshold=16.754392623901371 4.3644473552703866 32.115238189697273 14.170852661132814 8.8850913047790545 4.7212378978729257 41.963304519653327 1.0000000180025095e-35 32.318965911865241
decision_type=2 2 2 2 2 2 2 2 2
left_child=1 5 3 -2 -3 7 -4 -1 -6
right_child=2 4 6 -5 8 -7 -8 -9 -10
leaf_value=-0.0022247061057247388 0.060100586182654715 0.001870344107638788 0.1703779170319841 0.11185066128218615 0.025257043829508899 -0.006495688808932502 0.26656061172485351 -0.020409377713097025 0.079516222396244604
leaf_weight=137 73 247 37 81 406 748 6.9999999999999991 1378 11.999999999999998
leaf_count=137 73 247 37 81 406 748 7 1378 12
internal_value=0 -0.00738291 0.109178 0.0873198 0.0175497 -0.0147095 0.18568 -0.018765 0.0268147
internal_weight=0 2928 198 154 665 2263 44 1515 418
internal_count=3126 2928 198 154 665 2263 44 1515 418
is_linear=0
shrinkage=0.005


Tree=83
num_leaves=10
num_cat=0
split_feature=0 7 0 0 0 7 8 0 1
split_gain=99800.3 19331.1 15346.6 4181.26 3871.13 2250.95 2148.42 1623.77 1426.69
threshold=16.034737586975101 5.0105977058410653 24.703744888305668 40.97724914550782 4.8060579299926767 7.658708095550538 1335.5000000000002 1.0000000180025095e-35 2364.5000000000005
decision_type=2 2 2 2 2 2 2 2 2
left_child=1 4 6 -4 7 -3 8 -1 -2
right_child=2 5 3 -5 -6 -7 -8 -9 -10
leaf_value=-0.0021795936109764236 0.061042976126074795 0.011785858154132869 0.13392533680254765 0.21351956931027499 -0.005081459605513791 0.033294323148007322 0.085896243155002591 -0.020030266498192461 0.00517808571945352
leaf_weight=140 40 318 66 22 836 197 76 1415 15.999999999999998
leaf_count=140 40 318 66 22 836 197 76 1415 16
internal_value=0 -0.00777329 0.102678 0.153824 -0.0137583 0.0200134 0.0685809 -0.0184231 0.0450816
internal_weight=0 2906 220 88 2391 515 132 1555 56
internal_count=3126 2906 220 88 2391 515 132 1555 56
is_linear=0
shrinkage=0.005


Tree=84
num_leaves=10
num_cat=0
split_feature=0 7 0 0 0 14 17 0 3
split_gain=98831.9 24043 10073.2 5300.06 2390.01 2248.28 2148.88 1537.54 1327.25
threshold=18.323736190795902 5.6037356853485116 32.115238189697273 6.4367172718048105 13.469587802886965 11.547051906585695 41.963304519653327 19.9098653793335 8.7925658226013201
decision_type=2 2 2 2 2 2 2 2 2
left_child=1 3 5 -1 -3 8 -4 -7 -2
right_child=2 4 6 -5 -6 7 -8 -9 -10
leaf_value=-0.016528102880424368 0.09630022209510207 0.019177279943719285 0.1686843051137151 0.0011581549784513536 0.044043806746280445 0.061902647476929883 0.2642170660836356 0.12146908856813723 0.040607123386605805
leaf_weight=1965 20 317 37 540 139 12.999999999999998 6.9999999999999991 65 23
leaf_count=1965 20 317 37 540 139 13 7 65 23
internal_value=0 -0.00663662 0.119097 -0.0127155 0.0267572 0.0955388 0.183883 0.111541 0.0665109
internal_weight=0 2961 165 2505 456 121 44 78 43
internal_count=3126 2961 165 2505 456 121 44 78 43
is_linear=0
shrinkage=0.005


Tree=85
num_leaves=10
num_cat=0
split_feature=0 7 0 0 7 0 8 7 3
split_gain=97857.5 18963.1 15041.1 4120.02 3342.03 2905.34 2118.13 1620.8 1344.86
threshold=16.034737586975101 4.3644473552703866 24.703744888305668 45.079969406127937 6.8464000225067148 4.7212378978729257 1381.5000000000002 1.0000000180025095e-35 7.9421966075897226
decision_type=2 2 2 2 2 2 2 2 2
left_child=1 5 6 -4 -3 7 8 -1 -2
right_child=2 4 3 -5 -6 -7 -8 -9 -10
leaf_value=-0.0015446604314700576 0.062091062761843202 0.0066815636954380888 0.13937711863258442 0.24282445734197441 0.029801910008702959 -0.0064420784296762524 0.085923863786132357 -0.020074170090118356 0.011002063663970482
leaf_weight=129 40 379 77 10.999999999999998 266 746 73 1386 19
leaf_count=129 40 379 77 11 266 746 73 1386 19
internal_value=0 -0.00769726 0.101674 0.152308 0.0162165 -0.0145192 0.0679176 -0.0184964 0.0456387
internal_weight=0 2906 220 88 645 2261 132 1515 59
internal_count=3126 2906 220 88 645 2261 132 1515 59
is_linear=0
shrinkage=0.005


Tree=86
num_leaves=10
num_cat=0
split_feature=0 7 0 0 0 14 1 0 3
split_gain=96904.3 23571.5 9894.12 5204.35 2347.56 2205.85 2114.84 1513.61 1314.16
threshold=18.323736190795902 5.6037356853485116 32.115238189697273 6.4367172718048105 13.469587802886965 11.547051906585695 7907.5000000000009 19.9098653793335 8.7925658226013201
decision_type=2 2 2 2 2 2 2 2 2
left_child=1 3 5 -1 -3 8 -4 -7 -2
right_child=2 4 6 -5 -6 7 -8 -9 -10
leaf_value=-0.016368586774640564 0.095471335023641579 0.018980885869808707 0.16836290986914385 0.0011572623002446361 0.043625593443247061 0.061181848874458905 0.26937358538309736 0.12028302613278637 0.040053618918780398
leaf_weight=1965 20 317 38 540 139 12.999999999999998 5.9999999999999991 65 23
leaf_count=1965 20 317 38 540 139 13 6 65 23
internal_value=0 -0.00657158 0.11793 -0.0125906 0.0264932 0.094582 0.182137 0.110433 0.0658293
internal_weight=0 2961 165 2505 456 121 44 78 43
internal_count=3126 2961 165 2505 456 121 44 78 43
is_linear=0
shrinkage=0.005


Tree=87
num_leaves=10
num_cat=0
split_feature=0 7 0 0 0 0 8 7 1
split_gain=95952.4 18600.2 14741.7 4048.92 3281.41 2856.68 2088.83 1604.63 1395.79
threshold=16.034737586975101 4.3644473552703866 24.703744888305668 45.079969406127937 8.8850913047790545 4.7212378978729257 1335.5000000000002 1.0000000180025095e-35 2364.5000000000005
decision_type=2 2 2 2 2 2 2 2 2
left_child=1 5 6 -4 -3 7 8 -1 -2
right_child=2 4 3 -5 -6 -7 -8 -9 -10
leaf_value=-0.0014550935667614604 0.05987730941176414 0.0017461292519562158 0.13798808499977186 0.24053895126689565 0.024946245280089766 -0.0063691379417522989 0.084334250359158758 -0.01989195630341381 0.0046206286782398817
leaf_weight=129 40 247 77 10.999999999999998 398 746 76 1386 15.999999999999998
leaf_count=129 40 247 77 11 398 746 76 1386 16
internal_value=0 -0.00762197 0.100679 0.150807 0.0160619 -0.0143783 0.0672608 -0.0183221 0.0440897
internal_weight=0 2906 220 88 645 2261 132 1515 56
internal_count=3126 2906 220 88 645 2261 132 1515 56
is_linear=0
shrinkage=0.005


Tree=88
num_leaves=10
num_cat=0
split_feature=0 7 0 0 0 14 17 0 3
split_gain=95011.6 23118.1 9718.79 5105.68 2305.71 2165.57 2086.65 1489.96 1302.4
threshold=18.323736190795902 5.6037356853485116 32.115238189697273 6.4367172718048105 13.469587802886965 11.547051906585695 41.963304519653327 19.9098653793335 8.7925658226013201
decision_type=2 2 2 2 2 2 2 2 2
left_child=1 3 5 -1 -3 8 -4 -7 -2
right_child=2 4 6 -5 -6 7 -8 -9 -10
leaf_value=-0.01620993487496147 0.094652592353522774 0.018793086123297269 0.16543157126452471 0.0011489773192615421 0.043217151455527583 0.060473080506691569 0.25957088061741418 0.11911075358637251 0.039483332360244316
leaf_weight=1965 20 317 37 540 139 12.999999999999998 6.9999999999999991 65 23
leaf_count=1965 20 317 37 540 139 13 7 65 23
internal_value=0 -0.00650709 0.116773 -0.0124679 0.0262381 0.0936324 0.180408 0.109338 0.0651435
internal_weight=0 2961 165 2505 456 121 44 78 43
internal_count=3126 2961 165 2505 456 121 44 78 43
is_linear=0
shrinkage=0.005


Tree=89
num_leaves=10
num_cat=0
split_feature=0 7 0 7 0 0 17 0 14
split_gain=94090.1 19998.8 12397.7 3855.31 3656.73 2835.18 2065.83 1589.17 1353.95
threshold=16.754392623901371 4.3644473552703866 32.115238189697273 14.170852661132814 8.8850913047790545 4.7212378978729257 41.963304519653327 1.0000000180025095e-35 32.318965911865241
decision_type=2 2 2 2 2 2 2 2 2
left_child=1 5 3 -2 -3 7 -4 -1 -6
right_child=2 4 6 -5 8 -7 -8 -9 -10
leaf_value=-0.0019084240202486081 0.057986729281814135 0.0017195553414010808 0.16460441164068276 0.10808885370369678 0.024438068676060937 -0.0062521981230792513 0.25827303613935199 -0.019764096135995383 0.078327857355276753
leaf_weight=137 73 247 37 81 406 748 6.9999999999999991 1378 11.999999999999998
leaf_count=137 73 247 37 81 406 748 7 1378 12
internal_value=0 -0.00713337 0.105487 0.0843391 0.0169722 -0.014217 0.179506 -0.0181494 0.0259851
internal_weight=0 2928 198 154 665 2263 44 1515 418
internal_count=3126 2928 198 154 665 2263 44 1515 418
is_linear=0
shrinkage=0.005


Tree=90
num_leaves=10
num_cat=0
split_feature=0 7 0 0 7 0 8 7 3
split_gain=93165.7 18058.4 14318.8 3958.07 3222.72 2780.72 2045.6 1575.5 1390.16
threshold=16.034737586975101 4.3644473552703866 24.703744888305668 40.97724914550782 6.8464000225067148 4.7212378978729257 1335.5000000000002 1.0000000180025095e-35 8.0433993339538592
decision_type=2 2 2 2 2 2 2 2 2
left_child=1 5 6 -4 -3 7 -2 -1 -8
right_child=2 4 3 -5 -6 -7 8 -9 -10
leaf_value=-0.001345460442609565 0.043340687127783897 0.0064626963558977856 0.12924981394500443 0.20669061660766602 0.029166621960072844 -0.0062657030745741507 0.15030521699360438 -0.019614237219116731 0.076355534286602675
leaf_weight=129 56 379 66 22 266 746 6.9999999999999991 1386 69
leaf_count=129 56 379 66 22 266 746 7 1386 69
internal_value=0 -0.00751047 0.0992065 0.14861 0.0158259 -0.0141677 0.0662708 -0.0180587 0.0831667
internal_weight=0 2906 220 88 645 2261 132 1515 76
internal_count=3126 2906 220 88 645 2261 132 1515 76
is_linear=0
shrinkage=0.005


Tree=91
num_leaves=10
num_cat=0
split_feature=0 7 0 0 0 7 8 0 1
split_gain=92236.4 17881.1 14176 3925.95 3601.67 2133.85 2026 1552.6 1323.84
threshold=16.034737586975101 5.0105977058410653 24.703744888305668 45.079969406127937 4.8060579299926767 7.658708095550538 1381.5000000000002 1.0000000180025095e-35 4270.5000000000009
decision_type=2 2 2 2 2 2 2 2 2
left_child=1 4 6 -4 7 -3 -2 -1 -8
right_child=2 5 3 -5 -6 -7 8 -9 -10
leaf_value=-0.0018450277649930547 0.044150412024582843 0.011240662245325885 0.13524427594302538 0.23622578577561812 -0.0048596809739380646 0.032182236131561945 0.094378016447198801 -0.019300166299928624 0.041680592492222786
leaf_weight=140 59 318 77 10.999999999999998 836 197 58 1415 14.999999999999998
leaf_count=140 59 318 77 11 836 197 58 1415 15
internal_value=0 -0.00747292 0.0987105 0.147867 -0.0132291 0.0192513 0.0659395 -0.0177286 0.0835498
internal_weight=0 2906 220 88 2391 515 132 1555 73
internal_count=3126 2906 220 88 2391 515 132 1555 73
is_linear=0
shrinkage=0.005


Tree=92
num_leaves=10
num_cat=0
split_feature=0 0 0 7 0 14 17 7 0
split_gain=91348.4 22283 9365.1 3710.43 2765.21 2100.19 2025.82 1605.94 1454.11
threshold=18.323736190795902 8.9883575439453143 32.115238189697273 3.1065211296081547 13.469587802886965 11.547051906585695 41.963304519653327 5.0105977058410653 19.9098653793335
decision_type=2 2 2 2 2 2 2 2 2
left_child=1 3 5 -1 7 -2 -4 -3 -7
right_child=2 4 6 -5 -6 8 -8 -9 -10
leaf_value=-0.016470185032072402 0.063728525108376205 -0.0014042625196955421 0.16220960114453292 -0.0020588667950879251 0.038680662094107407 0.058977523675331711 0.25496665137154717 0.021334793066718812 0.11690534306260256
leaf_weight=1819 43 110 37 592 176 12.999999999999998 6.9999999999999991 264 65
leaf_count=1819 43 110 37 592 176 13 7 264 65
internal_value=0 -0.00638041 0.114499 -0.0129316 0.0223377 0.0917841 0.176966 0.0146468 0.107251
internal_weight=0 2961 165 2411 550 121 44 374 78
internal_count=3126 2961 165 2411 550 121 44 374 78
is_linear=0
shrinkage=0.005


Tree=93
num_leaves=10
num_cat=0
split_feature=0 0 0 7 0 14 1 7 0
split_gain=90437.2 22060.8 9271.68 3673.42 2737.62 2079.24 2010.97 1589.92 1439.6
threshold=18.323736190795902 8.9883575439453143 32.115238189697273 3.1065211296081547 13.469587802886965 11.547051906585695 7907.5000000000009 5.0105977058410653 19.9098653793335
decision_type=2 2 2 2 2 2 2 2 2
left_child=1 3 5 -1 7 -2 -4 -3 -7
right_child=2 4 6 -5 -6 8 -8 -9 -10
leaf_value=-0.016387834504918451 0.063409882718047442 -0.001397241083058444 0.16264990681096125 -0.0020485723487453887 0.038487258380998604 0.058682636389365557 0.26114880561828613 0.02122811906709985 0.11632081665213292
leaf_weight=1819 43 110 38 592 176 12.999999999999998 5.9999999999999991 264 65
leaf_count=1819 43 110 38 592 176 13 6 264 65
internal_value=0 -0.00634851 0.113927 -0.012867 0.022226 0.0913252 0.176082 0.0145736 0.106714
internal_weight=0 2961 165 2411 550 121 44 374 78
internal_count=3126 2961 165 2411 550 121 44 374 78
is_linear=0
shrinkage=0.005


Tree=94
num_leaves=10
num_cat=0
split_feature=0 7 0 0 7 0 8 7 3
split_gain=89552.8 17382.9 13759.1 3832.43 3116.61 2690.44 1987.91 1548.34 1318.11
threshold=16.034737586975101 4.3644473552703866 24.703744888305668 40.97724914550782 6.8464000225067148 4.7212378978729257 1381.5000000000002 1.0000000180025095e-35 7.9421966075897226
decision_type=2 2 2 2 2 2 2 2 2
left_child=1 5 6 -4 -3 7 8 -1 -2
right_child=2 4 3 -5 -6 -7 -8 -9 -10
leaf_value=-0.0011537167279757272 0.059683097250759598 0.0063245859106702829 0.12664164791504542 0.20284338712692263 0.028651589250290082 -0.0061222789208866639 0.082422340798051386 -0.019264312949606781 0.0091046605298393656
leaf_weight=129 40 379 66 22 266 746 73 1386 19
leaf_count=129 40 379 66 22 266 746 73 1386 19
internal_value=0 -0.0073634 0.0972638 0.145692 0.0155323 -0.0138949 0.0649784 -0.0177222 0.0433951
internal_weight=0 2906 220 88 645 2261 132 1515 59
internal_count=3126 2906 220 88 645 2261 132 1515 59
is_linear=0
shrinkage=0.005


Tree=95
num_leaves=10
num_cat=0
split_feature=0 0 0 7 7 14 17 7 0
split_gain=88673.3 21649.5 9097.21 3600.7 2690.6 2041.21 1983.93 1516.08 1418.33
threshold=18.323736190795902 8.9883575439453143 32.115238189697273 3.1065211296081547 7.658708095550538 11.547051906585695 41.963304519653327 2.7323062419891362 19.9098653793335
decision_type=2 2 2 2 2 2 2 2 2
left_child=1 3 5 -1 7 -2 -4 -3 -7
right_child=2 4 6 -5 -6 8 -8 -9 -10
leaf_value=-0.016229542263503451 0.062763469655846449 -0.016058558057516048 0.15977402519535375 -0.0020329291722973233 0.035984390592202542 0.057994601451433619 0.25156700406755722 0.017086658820534829 0.11520532959241134
leaf_weight=1819 43 39 37 592 212 12.999999999999998 6.9999999999999991 299 65
leaf_count=1819 43 39 37 592 212 13 7 299 65
internal_value=0 -0.00628629 0.11281 -0.0127437 0.0220206 0.0904224 0.174377 0.0132622 0.10567
internal_weight=0 2961 165 2411 550 121 44 338 78
internal_count=3126 2961 165 2411 550 121 44 338 78
is_linear=0
shrinkage=0.005


Tree=96
num_leaves=10
num_cat=0
split_feature=0 7 0 0 7 0 8 7 3
split_gain=87824 17045.4 13479.7 3780.74 3056.22 2646.63 1956.6 1533.51 1374.81
threshold=16.034737586975101 4.3644473552703866 24.703744888305668 45.079969406127937 6.8464000225067148 4.7212378978729257 1335.5000000000002 1.0000000180025095e-35 8.0433993339538592
decision_type=2 2 2 2 2 2 2 2 2
left_child=1 5 6 -4 -3 7 -2 -1 -8
right_child=2 4 3 -5 -6 -7 8 -9 -10
leaf_value=-0.0010668008479961129 0.041938640390123634 0.0062622651536420664 0.13186750548226495 0.23096398050134834 0.028371892536787274 -0.0060506724292567204 0.14765546832765852 -0.019090479893628696 0.074115196241848716
leaf_weight=129 56 379 77 10.999999999999998 266 746 6.9999999999999991 1386 69
leaf_count=129 56 379 77 11 266 746 7 1386 69
internal_value=0 -0.00729198 0.0963205 0.144255 0.0153803 -0.0137598 0.0643644 -0.0175558 0.0808886
internal_weight=0 2906 220 88 645 2261 132 1515 76
internal_count=3126 2906 220 88 645 2261 132 1515 76
is_linear=0
shrinkage=0.005


Tree=97
num_leaves=10
num_cat=0
split_feature=0 7 0 7 0 0 1 0 14
split_gain=86953.3 18501.5 11508.4 3590.5 3422.91 2644.2 1953.96 1500.72 1337.53
threshold=16.754392623901371 4.3644473552703866 32.115238189697273 14.170852661132814 8.8850913047790545 4.8060579299926767 7907.5000000000009 1.0000000180025095e-35 32.318965911865241
decision_type=2 2 2 2 2 2 2 2 2
left_child=1 5 3 -2 -3 7 -4 -1 -6
right_child=2 4 6 -5 8 -7 -8 -9 -10
leaf_value=-0.0015830206563764247 0.055600970518099119 0.0015712174931673054 0.159482426078696 0.10395180040303573 0.02351052876187975 -0.005790803923235578 0.25657527446746825 -0.018921233532092029 0.077072398997843267
leaf_weight=137 73 247 38 81 406 724 5.9999999999999991 1402 11.999999999999998
leaf_count=137 73 247 38 81 406 724 6 1402 12
internal_value=0 -0.0068575 0.101408 0.0810323 0.0163282 -0.0136708 0.172722 -0.0173778 0.0250482
internal_weight=0 2928 198 154 665 2263 44 1539 418
internal_count=3126 2928 198 154 665 2263 44 1539 418
is_linear=0
shrinkage=0.005


Tree=98
num_leaves=10
num_cat=0
split_feature=0 7 0 0 0 7 8 0 1
split_gain=86098.7 16710.6 13225.6 3714.05 3388.89 2023.05 1924.75 1497.17 1371.64
threshold=16.034737586975101 5.0105977058410653 24.703744888305668 45.079969406127937 4.8060579299926767 7.658708095550538 1335.5000000000002 1.0000000180025095e-35 2364.5000000000005
decision_type=2 2 2 2 2 2 2 2 2
left_child=1 4 6 -4 7 -3 8 -1 -2
right_child=2 5 3 -5 -6 -7 -8 -9 -10
leaf_value=-0.0015517454871109555 0.057124219410121441 0.010814868226572696 0.13057252769346361 0.22879108428955078 -0.0046661682644609419 0.031205475208193518 0.080105387454754443 -0.018692419255896087 0.0023476546630263329
leaf_weight=140 40 318 77 10.999999999999998 836 197 76 1415 15.999999999999998
leaf_count=140 40 318 77 11 836 197 76 1415 16
internal_value=0 -0.00722 0.0953697 0.14285 -0.0127846 0.0186148 0.0637162 -0.0171492 0.0414738
internal_weight=0 2906 220 88 2391 515 132 1555 56
internal_count=3126 2906 220 88 2391 515 132 1555 56
is_linear=0
shrinkage=0.005


Tree=99
num_leaves=10
num_cat=0
split_feature=0 0 0 7 7 14 17 8 7
split_gain=85250.5 20859.8 8776.29 3236.14 2834.24 1978.24 1926.54 1464.54 1444.86
threshold=18.323736190795902 8.5311617851257342 32.115238189697273 7.658708095550538 2.9328823089599614 11.547051906585695 41.963304519653327 2572.0000000000005 2.7323062419891362
decision_type=2 2 2 2 2 2 2 2 2
left_child=1 4 5 8 -1 -2 -4 -6 -3
right_child=2 3 6 -5 7 -7 -8 -9 -10
leaf_value=-0.016199668623254681 0.061393293939357579 -0.014400150726238887 0.15669243400161331 0.035380622545300527 -0.0048240238492944752 0.10363293757805458 0.24714810371398926 0.046919760661465783 0.014837767799139531
leaf_weight=1742 43 48 37 215 589 78 6.9999999999999991 13.999999999999998 353
leaf_count=1742 43 48 37 215 589 78 7 14 353
internal_value=0 -0.00616377 0.110612 0.0197295 -0.0129656 0.0886222 0.171083 -0.00362268 0.011338
internal_weight=0 2961 165 616 2345 121 44 603 401
internal_count=3126 2961 165 616 2345 121 44 603 401
is_linear=0
shrinkage=0.005


Tree=100
num_leaves=10
num_cat=0
split_feature=0 7 0 0 7 0 8 7 1
split_gain=84437.9 16386.1 12968 3653.63 2954.18 2551.54 1892.08 1494.27 1322.95
threshold=16.034737586975101 4.3644473552703866 24.703744888305668 40.97724914550782 6.8464000225067148 4.7212378978729257 1381.5000000000002 1.0000000180025095e-35 4270.5000000000009
decision_type=2 2 2 2 2 2 2 2 2
left_child=1 5 6 -4 -3 7 -2 -1 -8
right_child=2 4 3 -5 -6 -7 8 -9 -10
leaf_value=-0.00094207549973051685 0.04204521621435376 0.0061149116673868175 0.12286007171327418 0.1972630180012096 0.027852344882645631 -0.0059221513861985051 0.090944722418127386 -0.018733630053266281 0.038265045007069905
leaf_weight=129 59 379 66 22 266 746 58 1386 14.999999999999998
leaf_count=129 59 379 66 22 266 746 58 1386 15
internal_value=0 -0.00715003 0.0944454 0.141461 0.0150795 -0.0134915 0.0631018 -0.0172187 0.0801201
internal_weight=0 2906 220 88 645 2261 132 1515 73
internal_count=3126 2906 220 88 645 2261 132 1515 73
is_linear=0
shrinkage=0.005


Tree=101
num_leaves=10
num_cat=0
split_feature=0 7 0 0 0 14 11 1 0
split_gain=83595.7 16224.4 12838.6 3626.16 3298.72 1963.37 1877.59 1517.22 1470.26
threshold=16.034737586975101 5.0105977058410653 24.703744888305668 45.079969406127937 4.8060579299926767 12.441867351531984 0.041641132906079299 1663.5000000000002 1.0000000180025095e-35
decision_type=2 2 2 2 2 2 2 2 2
left_child=1 4 6 -4 8 -3 7 -2 -1
right_child=2 5 3 -5 -6 -7 -8 -9 -10
leaf_value=-0.0014468055241990702 0.10172606297901698 0.014279855262087171 0.12862232379325025 0.22567176732149993 -0.0045876312599869434 0.041805399260238602 0.075443990235472769 0.020891311278238015 -0.018432758845941758
leaf_weight=140 6.9999999999999991 439 77 10.999999999999998 836 76 91 34 1415
leaf_count=140 7 439 77 11 836 76 91 34 1415
internal_value=0 -0.00711428 0.0939732 0.140754 -0.0125973 0.0183419 0.0627863 0.0346924 -0.0169035
internal_weight=0 2906 220 88 2391 515 132 41 1555
internal_count=3126 2906 220 88 2391 515 132 41 1555
is_linear=0
shrinkage=0.005


Tree=102
num_leaves=10
num_cat=0
split_feature=0 0 0 7 0 14 17 7 0
split_gain=82783.3 20298.8 8543.38 3369.53 2567.32 1930.84 1889.32 1455.11 1367.54
threshold=18.323736190795902 8.9883575439453143 32.115238189697273 3.1065211296081547 13.469587802886965 11.547051906585695 41.963304519653327 5.0105977058410653 19.9098653793335
decision_type=2 2 2 2 2 2 2 2 2
left_child=1 3 5 -1 7 -2 -4 -3 -7
right_child=2 4 6 -5 -6 8 -8 -9 -10
leaf_value=-0.015698748946070137 0.060402852854756425 -0.0013535286459055815 0.15441200198353949 -0.0019654197033496285 0.03708310331281444 0.055319172602433422 0.24398947443280899 0.020291350955623341 0.11149624767670265
leaf_weight=1819 43 110 37 592 176 12.999999999999998 6.9999999999999991 264 65
leaf_count=1819 43 110 37 592 176 13 7 264 65
internal_value=0 -0.00607393 0.108999 -0.0123266 0.0213357 0.0873035 0.168663 0.0139252 0.102133
internal_weight=0 2961 165 2411 550 121 44 374 78
internal_count=3126 2961 165 2411 550 121 44 374 78
is_linear=0
shrinkage=0.005


Tree=103
num_leaves=10
num_cat=0
split_feature=0 7 0 7 0 0 1 7 14
split_gain=81969.2 17456 10886.5 3402.84 3260.06 2505.58 1871.81 1467.9 1313.92
threshold=16.754392623901371 4.3644473552703866 32.115238189697273 14.170852661132814 8.8850913047790545 4.7212378978729257 7907.5000000000009 1.0000000180025095e-35 32.318965911865241
decision_type=2 2 2 2 2 2 2 2 2
left_child=1 5 3 -2 -3 7 -4 -1 -6
right_child=2 4 6 -5 8 -7 -8 -9 -10
leaf_value=-0.00084044528792994887 0.053883442331666816 0.0014613577178094975 0.15486104212309185 0.10095374552923957 0.022849023168989149 -0.0057885419713821322 0.24989082972208659 -0.018474354119259129 0.075936094609399638
leaf_weight=129 73 247 38 81 406 748 5.9999999999999991 1386 11.999999999999998
leaf_count=129 73 247 38 81 406 748 6 1386 12
internal_value=0 -0.00665806 0.0984586 0.0786412 0.015863 -0.0132761 0.16782 -0.0169729 0.0243731
internal_weight=0 2928 198 154 665 2263 44 1515 418
internal_count=3126 2928 198 154 665 2263 44 1515 418
is_linear=0
shrinkage=0.005


Tree=104
num_leaves=10
num_cat=0
split_feature=0 7 0 0 7 0 7 7 1
split_gain=81157.5 15759.5 12476.6 3177.13 2877.18 2459.26 2301.72 1453.26 1172.42
threshold=16.034737586975101 4.3644473552703866 25.625626564025882 45.079969406127937 6.8464000225067148 4.7212378978729257 14.170852661132814 1.0000000180025095e-35 3829.5000000000005
decision_type=2 2 2 2 2 2 2 2 2
left_child=1 5 6 -4 -3 7 -2 -1 -8
right_child=2 4 3 -5 -6 -7 8 -9 -10
leaf_value=-0.00083624307614888328 0.050026867731433847 0.0059436180919782309 0.13079400759754758 0.22257748603820801 0.027395884695609937 -0.0057975978518139586 0.10961018639983554 -0.018381981701196357 0.059444938633177014
leaf_weight=129 92 379 66 10.999999999999998 266 746 33 1386 18
leaf_count=129 92 379 66 11 266 746 33 1386 18
internal_value=0 -0.00700976 0.0925926 0.143906 0.0147906 -0.0132288 0.0649624 -0.016888 0.0919048
internal_weight=0 2906 220 77 645 2261 143 1515 51
internal_count=3126 2906 220 77 645 2261 143 1515 51
is_linear=0
shrinkage=0.005


Tree=105
num_leaves=10
num_cat=0
split_feature=0 0 0 7 7 14 17 8 7
split_gain=80350.1 19736 8305.26 3075.52 2679.1 1883.4 1846.21 1434.99 1393.89
threshold=18.323736190795902 8.5311617851257342 32.115238189697273 7.658708095550538 2.9328823089599614 11.547051906585695 41.963304519653327 2572.0000000000005 2.7323062419891362
decision_type=2 2 2 2 2 2 2 2 2
left_child=1 4 5 8 -1 -2 -4 -6 -3
right_child=2 3 6 -5 7 -7 -8 -9 -10
leaf_value=-0.015744382936516019 0.059426071007930958 -0.014258627947419882 0.15212440825797416 0.034459911008213842 -0.0047056132764120686 0.10064081098788824 0.24067405836922781 0.046513437756470273 0.014459039891302247
leaf_weight=1742 43 48 37 215 589 78 6.9999999999999991 13.999999999999998 353
leaf_count=1742 43 48 37 215 589 78 7 14 353
internal_value=0 -0.005984 0.107386 0.0192021 -0.0126001 0.0859943 0.166212 -0.00351645 0.0110215
internal_weight=0 2961 165 616 2345 121 44 603 401
internal_count=3126 2961 165 616 2345 121 44 603 401
is_linear=0
shrinkage=0.005


Tree=106
num_leaves=10
num_cat=0
split_feature=0 7 0 0 0 14 11 1 0
split_gain=79591.9 15449.7 12234.3 3480.86 3157.37 1919.33 1819.63 1508.18 1432.09
threshold=16.034737586975101 5.0105977058410653 24.703744888305668 40.97724914550782 4.8060579299926767 12.441867351531984 0.041641132906079299 1663.5000000000002 1.0000000180025095e-35
decision_type=2 2 2 2 2 2 2 2 2
left_child=1 4 6 -4 8 -3 7 -2 -1
right_child=2 5 3 -5 -6 -7 -8 -9 -10
leaf_value=-0.001250516142163958 0.10042785678591047 0.013882924507256462 0.11920559339451067 0.19182806535200642 -0.0044561524306196707 0.041097982151335789 0.073711938252928419 0.01983445426558747 -0.018014540309777529
leaf_weight=140 6.9999999999999991 439 66 22 836 76 91 34 1415
leaf_count=140 7 439 66 22 836 76 91 34 1415
